5.044999999999999929e+00 5.059999999999999609e+00 5.054999999999999716e+00 5.049999999999999822e+00 5.054999999999999716e+00 5.059999999999999609e+00 5.044999999999999929e+00 5.035000000000000142e+00 5.049999999999999822e+00 5.065000000000000391e+00 5.044999999999999929e+00 5.040000000000000036e+00 5.044999999999999929e+00 5.054999999999999716e+00 5.044999999999999929e+00 5.040000000000000036e+00 5.049999999999999822e+00 5.059999999999999609e+00 5.059999999999999609e+00 5.049999999999999822e+00 5.049999999999999822e+00 5.059999999999999609e+00 5.065000000000000391e+00 5.054999999999999716e+00 5.044999999999999929e+00 5.054999999999999716e+00 5.075000000000000178e+00 5.065000000000000391e+00 5.070000000000000284e+00 5.065000000000000391e+00 5.070000000000000284e+00 5.059999999999999609e+00 5.049999999999999822e+00 5.065000000000000391e+00 5.075000000000000178e+00 5.065000000000000391e+00 5.054999999999999716e+00 5.070000000000000284e+00 5.075000000000000178e+00 5.075000000000000178e+00 5.065000000000000391e+00 5.084999999999999964e+00 5.094999999999999751e+00 5.110000000000000320e+00 5.089999999999999858e+00 5.099999999999999645e+00 5.105000000000000426e+00 5.125000000000000000e+00 5.139999999999999680e+00 5.125000000000000000e+00 5.125000000000000000e+00 5.139999999999999680e+00 5.134999999999999787e+00 5.125000000000000000e+00 5.120000000000000107e+00 5.110000000000000320e+00 5.105000000000000426e+00 5.094999999999999751e+00 5.099999999999999645e+00 5.099999999999999645e+00 5.084999999999999964e+00 5.080000000000000071e+00 5.070000000000000284e+00 5.084999999999999964e+00 5.084999999999999964e+00 5.070000000000000284e+00 5.080000000000000071e+00 5.080000000000000071e+00 5.080000000000000071e+00 5.065000000000000391e+00 5.075000000000000178e+00 5.080000000000000071e+00 5.080000000000000071e+00 5.070000000000000284e+00 5.054999999999999716e+00 5.075000000000000178e+00 5.084999999999999964e+00 5.040000000000000036e+00 4.974999999999999645e+00 4.955000000000000071e+00 4.915000000000000036e+00 4.955000000000000071e+00 5.139999999999999680e+00 5.379999999999999893e+00 5.575000000000000178e+00 5.769999999999999574e+00 5.974999999999999645e+00 6.139999999999999680e+00 6.019999999999999574e+00 5.530000000000000249e+00 5.054999999999999716e+00 4.905000000000000249e+00 4.974999999999999645e+00 5.014999999999999680e+00 5.009999999999999787e+00 5.025000000000000355e+00 5.040000000000000036e+00 5.035000000000000142e+00 5.025000000000000355e+00 5.009999999999999787e+00 5.025000000000000355e+00 5.030000000000000249e+00 5.014999999999999680e+00 5.004999999999999893e+00 5.025000000000000355e+00 5.035000000000000142e+00 5.025000000000000355e+00 5.009999999999999787e+00 5.019999999999999574e+00 5.014999999999999680e+00 5.019999999999999574e+00 5.019999999999999574e+00 5.030000000000000249e+00 5.025000000000000355e+00 5.019999999999999574e+00 5.014999999999999680e+00 5.019999999999999574e+00 5.040000000000000036e+00 5.040000000000000036e+00 5.025000000000000355e+00 5.019999999999999574e+00 5.030000000000000249e+00 5.040000000000000036e+00 5.025000000000000355e+00 5.009999999999999787e+00 5.035000000000000142e+00 5.030000000000000249e+00 5.019999999999999574e+00 5.009999999999999787e+00 5.025000000000000355e+00 5.025000000000000355e+00 5.025000000000000355e+00 5.009999999999999787e+00 5.019999999999999574e+00 5.014999999999999680e+00 4.995000000000000107e+00 4.995000000000000107e+00 4.990000000000000213e+00 5.004999999999999893e+00 4.990000000000000213e+00 4.964999999999999858e+00 4.950000000000000178e+00 4.955000000000000071e+00 4.959999999999999964e+00 4.940000000000000391e+00 4.934999999999999609e+00 4.940000000000000391e+00 4.929999999999999716e+00 4.900000000000000355e+00 4.900000000000000355e+00 4.910000000000000142e+00 4.900000000000000355e+00 4.884999999999999787e+00 4.865000000000000213e+00 4.879999999999999893e+00 4.894999999999999574e+00 4.894999999999999574e+00 4.894999999999999574e+00 4.915000000000000036e+00 4.934999999999999609e+00 4.950000000000000178e+00 4.974999999999999645e+00 5.009999999999999787e+00 5.030000000000000249e+00 5.040000000000000036e+00 5.044999999999999929e+00 5.070000000000000284e+00 5.094999999999999751e+00 5.084999999999999964e+00 5.084999999999999964e+00 5.094999999999999751e+00 5.105000000000000426e+00 5.120000000000000107e+00 5.110000000000000320e+00 5.099999999999999645e+00 5.110000000000000320e+00 5.120000000000000107e+00 5.099999999999999645e+00 5.094999999999999751e+00 5.105000000000000426e+00 5.115000000000000213e+00 5.105000000000000426e+00 5.094999999999999751e+00 5.110000000000000320e+00 5.115000000000000213e+00 5.105000000000000426e+00 5.084999999999999964e+00 5.084999999999999964e+00 5.110000000000000320e+00 5.105000000000000426e+00 5.099999999999999645e+00 5.089999999999999858e+00 5.089999999999999858e+00 5.084999999999999964e+00 5.080000000000000071e+00 5.080000000000000071e+00 5.089999999999999858e+00 5.094999999999999751e+00 5.070000000000000284e+00 5.059999999999999609e+00 5.070000000000000284e+00 5.075000000000000178e+00 5.065000000000000391e+00 5.035000000000000142e+00 5.065000000000000391e+00 5.070000000000000284e+00 5.054999999999999716e+00 5.059999999999999609e+00 5.065000000000000391e+00 5.070000000000000284e+00 5.054999999999999716e+00 5.049999999999999822e+00 5.059999999999999609e+00 5.075000000000000178e+00 5.065000000000000391e+00 5.049999999999999822e+00 5.059999999999999609e+00 5.075000000000000178e+00 5.075000000000000178e+00 5.054999999999999716e+00 5.044999999999999929e+00 5.059999999999999609e+00 5.065000000000000391e+00 5.054999999999999716e+00 5.070000000000000284e+00 5.065000000000000391e+00 5.070000000000000284e+00 5.070000000000000284e+00 5.049999999999999822e+00 5.059999999999999609e+00 5.070000000000000284e+00 5.065000000000000391e+00 5.054999999999999716e+00 5.065000000000000391e+00 5.054999999999999716e+00 5.054999999999999716e+00 5.044999999999999929e+00 5.059999999999999609e+00 5.059999999999999609e+00 5.059999999999999609e+00 5.054999999999999716e+00 5.059999999999999609e+00 5.080000000000000071e+00 5.084999999999999964e+00 5.084999999999999964e+00 5.084999999999999964e+00 5.089999999999999858e+00 5.099999999999999645e+00 5.089999999999999858e+00 5.084999999999999964e+00 5.110000000000000320e+00 5.125000000000000000e+00 5.105000000000000426e+00 5.099999999999999645e+00 5.115000000000000213e+00 5.105000000000000426e+00 5.080000000000000071e+00 5.070000000000000284e+00 5.084999999999999964e+00 5.089999999999999858e+00 5.065000000000000391e+00 5.054999999999999716e+00 5.065000000000000391e+00 5.059999999999999609e+00 5.049999999999999822e+00 5.054999999999999716e+00 5.049999999999999822e+00 5.049999999999999822e+00 5.049999999999999822e+00 5.049999999999999822e+00 5.044999999999999929e+00 5.040000000000000036e+00 5.025000000000000355e+00 5.025000000000000355e+00 5.025000000000000355e+00 5.040000000000000036e+00 5.035000000000000142e+00 5.025000000000000355e+00 4.990000000000000213e+00 4.974999999999999645e+00 4.950000000000000178e+00 4.919999999999999929e+00 4.860000000000000320e+00 4.849999999999999645e+00 4.889999999999999680e+00 4.974999999999999645e+00 5.099999999999999645e+00 5.245000000000000107e+00 5.370000000000000107e+00 5.519999999999999574e+00 5.695000000000000284e+00 5.780000000000000249e+00 5.519999999999999574e+00 5.044999999999999929e+00 4.849999999999999645e+00 4.919999999999999929e+00 4.950000000000000178e+00 4.990000000000000213e+00 4.995000000000000107e+00 4.990000000000000213e+00 4.995000000000000107e+00 4.995000000000000107e+00 4.995000000000000107e+00 4.974999999999999645e+00 4.985000000000000320e+00 5.000000000000000000e+00 5.000000000000000000e+00 4.985000000000000320e+00 4.995000000000000107e+00 5.000000000000000000e+00 5.000000000000000000e+00 4.990000000000000213e+00 4.985000000000000320e+00 4.990000000000000213e+00 5.000000000000000000e+00 4.980000000000000426e+00 4.985000000000000320e+00 5.014999999999999680e+00 5.004999999999999893e+00 4.990000000000000213e+00 4.990000000000000213e+00 4.995000000000000107e+00 5.000000000000000000e+00 4.980000000000000426e+00 4.980000000000000426e+00 5.009999999999999787e+00 5.009999999999999787e+00 5.000000000000000000e+00 4.985000000000000320e+00 4.990000000000000213e+00 4.980000000000000426e+00 4.985000000000000320e+00 4.995000000000000107e+00 4.985000000000000320e+00 4.985000000000000320e+00 4.964999999999999858e+00 4.955000000000000071e+00 4.959999999999999964e+00 4.974999999999999645e+00 4.969999999999999751e+00 4.945000000000000284e+00 4.940000000000000391e+00 4.934999999999999609e+00 4.919999999999999929e+00 4.905000000000000249e+00 4.889999999999999680e+00 4.894999999999999574e+00 4.879999999999999893e+00 4.865000000000000213e+00 4.860000000000000320e+00 4.870000000000000107e+00 4.849999999999999645e+00 4.825000000000000178e+00 4.799999999999999822e+00 4.834999999999999964e+00 4.849999999999999645e+00 4.855000000000000426e+00 4.844999999999999751e+00 4.849999999999999645e+00 4.860000000000000320e+00 4.855000000000000426e+00 4.870000000000000107e+00 4.915000000000000036e+00 4.924999999999999822e+00 4.929999999999999716e+00 4.945000000000000284e+00 4.969999999999999751e+00 4.995000000000000107e+00 4.990000000000000213e+00 4.969999999999999751e+00 4.985000000000000320e+00 4.995000000000000107e+00 5.025000000000000355e+00 5.025000000000000355e+00 5.019999999999999574e+00 5.019999999999999574e+00 5.025000000000000355e+00 5.014999999999999680e+00 4.995000000000000107e+00 5.000000000000000000e+00 5.000000000000000000e+00 4.995000000000000107e+00 4.995000000000000107e+00 5.000000000000000000e+00 5.000000000000000000e+00 4.985000000000000320e+00 4.990000000000000213e+00 4.995000000000000107e+00 5.000000000000000000e+00 5.004999999999999893e+00 4.990000000000000213e+00 4.985000000000000320e+00 4.980000000000000426e+00 4.980000000000000426e+00 4.955000000000000071e+00 4.959999999999999964e+00 4.959999999999999964e+00 4.959999999999999964e+00 4.959999999999999964e+00 4.955000000000000071e+00 4.959999999999999964e+00 4.969999999999999751e+00 4.955000000000000071e+00 4.945000000000000284e+00 4.955000000000000071e+00 4.959999999999999964e+00 4.950000000000000178e+00 4.950000000000000178e+00 4.950000000000000178e+00 4.959999999999999964e+00 4.964999999999999858e+00 4.955000000000000071e+00 4.964999999999999858e+00 4.964999999999999858e+00 4.964999999999999858e+00 4.964999999999999858e+00 4.955000000000000071e+00 4.959999999999999964e+00 4.950000000000000178e+00 4.940000000000000391e+00 4.934999999999999609e+00 4.940000000000000391e+00 4.945000000000000284e+00 4.955000000000000071e+00 4.955000000000000071e+00 4.955000000000000071e+00 4.945000000000000284e+00 4.955000000000000071e+00 4.955000000000000071e+00 4.964999999999999858e+00 4.964999999999999858e+00 4.940000000000000391e+00 4.934999999999999609e+00 4.945000000000000284e+00 4.959999999999999964e+00 4.959999999999999964e+00 4.940000000000000391e+00 4.940000000000000391e+00 4.950000000000000178e+00 4.955000000000000071e+00 4.934999999999999609e+00 4.945000000000000284e+00 4.969999999999999751e+00 4.964999999999999858e+00 4.974999999999999645e+00 4.974999999999999645e+00 4.985000000000000320e+00 4.995000000000000107e+00 5.000000000000000000e+00 4.980000000000000426e+00 4.995000000000000107e+00 4.995000000000000107e+00 5.000000000000000000e+00 4.980000000000000426e+00 4.985000000000000320e+00 4.969999999999999751e+00 4.955000000000000071e+00 4.929999999999999716e+00 4.945000000000000284e+00 4.950000000000000178e+00 4.924999999999999822e+00 4.924999999999999822e+00 4.924999999999999822e+00 4.950000000000000178e+00 4.940000000000000391e+00 4.915000000000000036e+00 4.915000000000000036e+00 4.929999999999999716e+00 4.940000000000000391e+00 4.934999999999999609e+00 4.919999999999999929e+00 4.934999999999999609e+00 4.929999999999999716e+00 4.915000000000000036e+00 4.924999999999999822e+00 4.924999999999999822e+00 4.910000000000000142e+00 4.870000000000000107e+00 4.839999999999999858e+00 4.815000000000000391e+00 4.815000000000000391e+00 4.884999999999999787e+00 5.054999999999999716e+00 5.214999999999999858e+00 5.304999999999999716e+00 5.434999999999999609e+00 5.605000000000000426e+00 5.684999999999999609e+00 5.344999999999999751e+00 4.870000000000000107e+00 4.745000000000000107e+00 4.825000000000000178e+00 4.894999999999999574e+00 4.905000000000000249e+00 4.894999999999999574e+00 4.900000000000000355e+00 4.900000000000000355e+00 4.929999999999999716e+00 4.919999999999999929e+00 4.915000000000000036e+00 4.929999999999999716e+00 4.929999999999999716e+00 4.940000000000000391e+00 4.929999999999999716e+00 4.934999999999999609e+00 4.929999999999999716e+00 4.934999999999999609e+00 4.929999999999999716e+00 4.929999999999999716e+00 4.945000000000000284e+00 4.950000000000000178e+00 4.919999999999999929e+00 4.940000000000000391e+00 4.945000000000000284e+00 4.955000000000000071e+00 4.945000000000000284e+00 4.940000000000000391e+00 4.950000000000000178e+00 4.955000000000000071e+00 4.945000000000000284e+00 4.950000000000000178e+00 4.945000000000000284e+00 4.964999999999999858e+00 4.955000000000000071e+00 4.950000000000000178e+00 4.964999999999999858e+00 4.964999999999999858e+00 4.945000000000000284e+00 4.934999999999999609e+00 4.950000000000000178e+00 4.964999999999999858e+00 4.955000000000000071e+00 4.940000000000000391e+00 4.940000000000000391e+00 4.945000000000000284e+00 4.940000000000000391e+00 4.915000000000000036e+00 4.905000000000000249e+00 4.910000000000000142e+00 4.905000000000000249e+00 4.879999999999999893e+00 4.870000000000000107e+00 4.860000000000000320e+00 4.844999999999999751e+00 4.830000000000000071e+00 4.830000000000000071e+00 4.834999999999999964e+00 4.825000000000000178e+00 4.804999999999999716e+00 4.799999999999999822e+00 4.815000000000000391e+00 4.820000000000000284e+00 4.809999999999999609e+00 4.815000000000000391e+00 4.849999999999999645e+00 4.879999999999999893e+00 4.889999999999999680e+00 4.900000000000000355e+00 4.929999999999999716e+00 4.964999999999999858e+00 4.985000000000000320e+00 4.990000000000000213e+00 4.995000000000000107e+00 5.014999999999999680e+00 5.019999999999999574e+00 5.009999999999999787e+00 5.014999999999999680e+00 5.030000000000000249e+00 5.019999999999999574e+00 5.004999999999999893e+00 5.014999999999999680e+00 5.019999999999999574e+00 5.040000000000000036e+00 5.030000000000000249e+00 5.019999999999999574e+00 5.030000000000000249e+00 5.040000000000000036e+00 5.019999999999999574e+00 5.009999999999999787e+00 5.019999999999999574e+00 5.030000000000000249e+00 5.030000000000000249e+00 5.004999999999999893e+00 5.014999999999999680e+00 5.019999999999999574e+00 5.025000000000000355e+00 5.009999999999999787e+00 5.004999999999999893e+00 5.000000000000000000e+00 5.014999999999999680e+00 5.000000000000000000e+00 4.990000000000000213e+00 4.995000000000000107e+00 4.985000000000000320e+00 4.990000000000000213e+00 4.985000000000000320e+00 4.990000000000000213e+00 5.000000000000000000e+00 4.985000000000000320e+00 4.974999999999999645e+00 4.985000000000000320e+00 5.004999999999999893e+00 4.990000000000000213e+00 4.969999999999999751e+00 4.985000000000000320e+00 4.990000000000000213e+00 4.980000000000000426e+00 4.969999999999999751e+00 4.974999999999999645e+00 4.980000000000000426e+00 4.990000000000000213e+00 4.974999999999999645e+00 4.980000000000000426e+00 4.980000000000000426e+00 4.980000000000000426e+00 4.974999999999999645e+00 4.980000000000000426e+00 4.995000000000000107e+00 4.985000000000000320e+00 4.969999999999999751e+00 4.969999999999999751e+00 4.974999999999999645e+00 4.995000000000000107e+00 4.980000000000000426e+00 4.959999999999999964e+00 4.980000000000000426e+00 4.985000000000000320e+00 4.985000000000000320e+00 4.969999999999999751e+00 4.980000000000000426e+00 4.985000000000000320e+00 4.985000000000000320e+00 4.974999999999999645e+00 4.974999999999999645e+00 4.990000000000000213e+00 4.990000000000000213e+00 4.974999999999999645e+00 4.985000000000000320e+00 4.995000000000000107e+00 4.995000000000000107e+00 5.000000000000000000e+00 5.009999999999999787e+00 5.040000000000000036e+00 5.025000000000000355e+00 5.019999999999999574e+00 5.019999999999999574e+00 5.025000000000000355e+00 5.054999999999999716e+00 5.044999999999999929e+00 5.030000000000000249e+00 5.044999999999999929e+00 5.049999999999999822e+00 5.044999999999999929e+00 5.004999999999999893e+00 5.019999999999999574e+00 5.014999999999999680e+00 5.014999999999999680e+00 5.004999999999999893e+00 5.009999999999999787e+00 5.004999999999999893e+00 4.995000000000000107e+00 4.985000000000000320e+00 4.990000000000000213e+00 5.004999999999999893e+00 5.000000000000000000e+00 4.980000000000000426e+00 4.969999999999999751e+00 4.990000000000000213e+00 4.995000000000000107e+00 4.980000000000000426e+00 4.980000000000000426e+00 4.985000000000000320e+00 4.985000000000000320e+00 4.980000000000000426e+00 4.959999999999999964e+00 4.934999999999999609e+00 4.889999999999999680e+00 4.849999999999999645e+00 4.790000000000000036e+00 4.809999999999999609e+00 4.889999999999999680e+00 5.040000000000000036e+00 5.230000000000000426e+00 5.415000000000000036e+00 5.580000000000000071e+00 5.745000000000000107e+00 5.929999999999999716e+00 6.099999999999999645e+00 5.980000000000000426e+00 5.434999999999999609e+00 4.990000000000000213e+00 4.945000000000000284e+00 4.985000000000000320e+00 4.980000000000000426e+00 4.964999999999999858e+00 4.950000000000000178e+00 4.945000000000000284e+00 4.955000000000000071e+00 4.940000000000000391e+00 4.934999999999999609e+00 4.940000000000000391e+00 4.945000000000000284e+00 4.940000000000000391e+00 4.940000000000000391e+00 4.955000000000000071e+00 4.955000000000000071e+00 4.945000000000000284e+00 4.934999999999999609e+00 4.940000000000000391e+00 4.945000000000000284e+00 4.945000000000000284e+00 4.940000000000000391e+00 4.945000000000000284e+00 4.950000000000000178e+00 4.955000000000000071e+00 4.945000000000000284e+00 4.945000000000000284e+00 4.945000000000000284e+00 4.955000000000000071e+00 4.950000000000000178e+00 4.950000000000000178e+00 4.959999999999999964e+00 4.959999999999999964e+00 4.940000000000000391e+00 4.929999999999999716e+00 4.955000000000000071e+00 4.959999999999999964e+00 4.945000000000000284e+00 4.919999999999999929e+00 4.929999999999999716e+00 4.940000000000000391e+00 4.940000000000000391e+00 4.919999999999999929e+00 4.919999999999999929e+00 4.924999999999999822e+00 4.919999999999999929e+00 4.905000000000000249e+00 4.894999999999999574e+00 4.900000000000000355e+00 4.894999999999999574e+00 4.860000000000000320e+00 4.855000000000000426e+00 4.870000000000000107e+00 4.849999999999999645e+00 4.830000000000000071e+00 4.820000000000000284e+00 4.820000000000000284e+00 4.830000000000000071e+00 4.809999999999999609e+00 4.794999999999999929e+00 4.799999999999999822e+00 4.809999999999999609e+00 4.804999999999999716e+00 4.804999999999999716e+00 4.830000000000000071e+00 4.844999999999999751e+00 4.849999999999999645e+00 4.879999999999999893e+00 4.905000000000000249e+00 4.934999999999999609e+00 4.950000000000000178e+00 4.955000000000000071e+00 4.980000000000000426e+00 5.004999999999999893e+00 5.009999999999999787e+00 5.019999999999999574e+00 5.019999999999999574e+00 5.030000000000000249e+00 5.044999999999999929e+00 5.025000000000000355e+00 5.035000000000000142e+00 5.040000000000000036e+00 5.044999999999999929e+00 5.035000000000000142e+00 5.025000000000000355e+00 5.040000000000000036e+00 5.044999999999999929e+00 5.040000000000000036e+00 5.040000000000000036e+00 5.040000000000000036e+00 5.044999999999999929e+00 5.035000000000000142e+00 5.025000000000000355e+00 5.035000000000000142e+00 5.044999999999999929e+00 5.040000000000000036e+00 5.025000000000000355e+00 5.014999999999999680e+00 5.030000000000000249e+00 5.035000000000000142e+00 5.019999999999999574e+00 5.014999999999999680e+00 5.014999999999999680e+00 5.025000000000000355e+00 5.004999999999999893e+00 5.004999999999999893e+00 5.009999999999999787e+00 5.004999999999999893e+00 4.990000000000000213e+00 4.995000000000000107e+00 5.004999999999999893e+00 5.004999999999999893e+00 4.995000000000000107e+00 4.980000000000000426e+00 4.990000000000000213e+00 5.000000000000000000e+00 5.000000000000000000e+00 4.990000000000000213e+00 4.990000000000000213e+00 4.995000000000000107e+00 4.995000000000000107e+00 4.990000000000000213e+00 4.990000000000000213e+00 5.004999999999999893e+00 5.009999999999999787e+00 4.985000000000000320e+00 5.004999999999999893e+00 5.009999999999999787e+00 5.004999999999999893e+00 5.004999999999999893e+00 4.985000000000000320e+00 4.990000000000000213e+00 5.009999999999999787e+00 5.000000000000000000e+00 4.995000000000000107e+00 5.009999999999999787e+00 5.004999999999999893e+00 5.004999999999999893e+00 4.995000000000000107e+00 5.009999999999999787e+00 5.014999999999999680e+00 5.004999999999999893e+00 4.990000000000000213e+00 5.004999999999999893e+00 5.019999999999999574e+00 5.014999999999999680e+00 5.004999999999999893e+00 5.000000000000000000e+00 5.009999999999999787e+00 5.025000000000000355e+00 5.030000000000000249e+00 5.035000000000000142e+00 5.059999999999999609e+00 5.059999999999999609e+00 5.049999999999999822e+00 5.049999999999999822e+00 5.065000000000000391e+00 5.089999999999999858e+00 5.065000000000000391e+00 5.065000000000000391e+00 5.084999999999999964e+00 5.084999999999999964e+00 5.065000000000000391e+00 5.040000000000000036e+00 5.044999999999999929e+00 5.059999999999999609e+00 5.049999999999999822e+00 5.030000000000000249e+00 5.040000000000000036e+00 5.054999999999999716e+00 5.054999999999999716e+00 5.030000000000000249e+00 5.014999999999999680e+00 5.025000000000000355e+00 5.014999999999999680e+00 5.014999999999999680e+00 5.009999999999999787e+00 5.014999999999999680e+00 5.014999999999999680e+00 4.995000000000000107e+00 5.000000000000000000e+00 5.004999999999999893e+00 5.025000000000000355e+00 5.014999999999999680e+00 4.995000000000000107e+00 5.025000000000000355e+00 5.030000000000000249e+00 5.004999999999999893e+00 4.969999999999999751e+00 4.929999999999999716e+00 4.889999999999999680e+00 4.844999999999999751e+00 4.865000000000000213e+00 5.035000000000000142e+00 5.264999999999999680e+00 5.445000000000000284e+00 5.610000000000000320e+00 5.804999999999999716e+00 6.000000000000000000e+00 6.040000000000000036e+00 5.629999999999999893e+00 5.094999999999999751e+00 4.940000000000000391e+00 4.995000000000000107e+00 4.985000000000000320e+00 4.980000000000000426e+00 4.985000000000000320e+00 4.974999999999999645e+00 4.969999999999999751e+00 4.969999999999999751e+00 4.980000000000000426e+00 4.980000000000000426e+00 4.974999999999999645e+00 4.955000000000000071e+00 4.959999999999999964e+00 4.969999999999999751e+00 4.980000000000000426e+00 4.959999999999999964e+00 4.964999999999999858e+00 4.969999999999999751e+00 4.969999999999999751e+00 4.964999999999999858e+00 4.969999999999999751e+00 4.974999999999999645e+00 4.980000000000000426e+00 4.950000000000000178e+00 4.964999999999999858e+00 4.969999999999999751e+00 4.974999999999999645e+00 4.964999999999999858e+00 4.959999999999999964e+00 4.964999999999999858e+00 4.980000000000000426e+00 4.969999999999999751e+00 4.964999999999999858e+00 4.974999999999999645e+00 4.974999999999999645e+00 4.980000000000000426e+00 4.974999999999999645e+00 4.969999999999999751e+00 4.974999999999999645e+00 4.959999999999999964e+00 4.950000000000000178e+00 4.969999999999999751e+00 4.980000000000000426e+00 4.959999999999999964e+00 4.940000000000000391e+00 4.955000000000000071e+00 4.955000000000000071e+00 4.959999999999999964e+00 4.945000000000000284e+00 4.934999999999999609e+00 4.940000000000000391e+00 4.929999999999999716e+00 4.924999999999999822e+00 4.919999999999999929e+00 4.929999999999999716e+00 4.929999999999999716e+00 4.910000000000000142e+00 4.884999999999999787e+00 4.884999999999999787e+00 4.889999999999999680e+00 4.884999999999999787e+00 4.865000000000000213e+00 4.860000000000000320e+00 4.860000000000000320e+00 4.860000000000000320e+00 4.844999999999999751e+00 4.860000000000000320e+00 4.879999999999999893e+00 4.884999999999999787e+00 4.894999999999999574e+00 4.910000000000000142e+00 4.950000000000000178e+00 4.964999999999999858e+00 4.980000000000000426e+00 4.990000000000000213e+00 5.009999999999999787e+00 5.025000000000000355e+00 5.019999999999999574e+00 5.025000000000000355e+00 5.025000000000000355e+00 5.049999999999999822e+00 5.054999999999999716e+00 5.049999999999999822e+00 5.059999999999999609e+00 5.070000000000000284e+00 5.054999999999999716e+00 5.040000000000000036e+00 5.059999999999999609e+00 5.059999999999999609e+00 5.070000000000000284e+00 5.044999999999999929e+00 5.044999999999999929e+00 5.065000000000000391e+00 5.070000000000000284e+00 5.049999999999999822e+00 5.040000000000000036e+00 5.049999999999999822e+00 5.054999999999999716e+00 5.044999999999999929e+00 5.040000000000000036e+00 5.049999999999999822e+00 5.035000000000000142e+00
