   0.00000000000000e+00   0.00000000000000e+00   0.00000000000000e+00   0.00000000000000e+00   0.00000000000000e+00   0.00000000000000e+00   0.00000000000000e+00   0.00000000000000e+00   0.00000000000000e+00   0.00000000000000e+00   0.00000000000000e+00   0.00000000000000e+00   0.00000000000000e+00   0.00000000000000e+00   0.00000000000000e+00   0.00000000000000e+00   0.00000000000000e+00   0.00000000000000e+00   0.00000000000000e+00   0.00000000000000e+00   0.00000000000000e+00   0.00000000000000e+00   0.00000000000000e+00   0.00000000000000e+00   0.00000000000000e+00   0.00000000000000e+00   0.00000000000000e+00   0.00000000000000e+00   0.00000000000000e+00   0.00000000000000e+00   0.00000000000000e+00   0.00000000000000e+00   0.00000000000000e+00   0.00000000000000e+00   0.00000000000000e+00   0.00000000000000e+00   0.00000000000000e+00   0.00000000000000e+00   0.00000000000000e+00   0.00000000000000e+00   0.00000000000000e+00   0.00000000000000e+00   0.00000000000000e+00   0.00000000000000e+00   0.00000000000000e+00   0.00000000000000e+00   0.00000000000000e+00   0.00000000000000e+00   0.00000000000000e+00   0.00000000000000e+00   0.00000000000000e+00   4.34921478821091e-50   1.86506191541820e-52   0.00000000000000e+00   1.99029069018581e-59   2.75790540509438e-63   8.82573179261040e-65   5.58358936091977e-68   0.00000000000000e+00   0.00000000000000e+00   2.24897198176753e-68   1.90952733037111e-69   5.19802693391059e-71   5.08916663930551e-66   3.78234989977923e-65   1.56449042429128e-66   1.92790385427296e-62   1.12961763977422e-62   1.32984045338267e-63   2.58949057511753e-65   1.88336122940186e-65   1.23373350866833e-64   5.49306241010410e-65   1.82306640032098e-64   4.77260964732155e-69   2.07820607259784e-66   1.75383549129075e-64   3.26788808859957e-71   2.68770935001699e-89  1.42918733733267e-102  2.06800133249963e-121  1.44723064597904e-117   2.21851673839409e-76   4.41375945852755e-24   9.99999999999801e-01   1.00000000000000e+00   1.30751947262837e-26  2.20268346880431e-165  6.20645264305774e-319   0.00000000000000e+00   0.00000000000000e+00   0.00000000000000e+00   0.00000000000000e+00   0.00000000000000e+00   0.00000000000000e+00   0.00000000000000e+00   0.00000000000000e+00   0.00000000000000e+00   0.00000000000000e+00   0.00000000000000e+00   0.00000000000000e+00   0.00000000000000e+00   0.00000000000000e+00   0.00000000000000e+00   0.00000000000000e+00   0.00000000000000e+00   0.00000000000000e+00   0.00000000000000e+00   0.00000000000000e+00   0.00000000000000e+00   0.00000000000000e+00   0.00000000000000e+00   0.00000000000000e+00   0.00000000000000e+00   0.00000000000000e+00   0.00000000000000e+00   0.00000000000000e+00   0.00000000000000e+00   0.00000000000000e+00   0.00000000000000e+00   0.00000000000000e+00   0.00000000000000e+00   0.00000000000000e+00   0.00000000000000e+00   0.00000000000000e+00   0.00000000000000e+00   0.00000000000000e+00   0.00000000000000e+00   0.00000000000000e+00   0.00000000000000e+00   0.00000000000000e+00   0.00000000000000e+00   0.00000000000000e+00   0.00000000000000e+00   0.00000000000000e+00   0.00000000000000e+00   0.00000000000000e+00   0.00000000000000e+00   0.00000000000000e+00   0.00000000000000e+00   0.00000000000000e+00   0.00000000000000e+00   0.00000000000000e+00   0.00000000000000e+00   0.00000000000000e+00   0.00000000000000e+00   0.00000000000000e+00   0.00000000000000e+00   0.00000000000000e+00   0.00000000000000e+00   0.00000000000000e+00   0.00000000000000e+00   0.00000000000000e+00   0.00000000000000e+00   0.00000000000000e+00   0.00000000000000e+00   0.00000000000000e+00   0.00000000000000e+00   0.00000000000000e+00  3.66605170750855e-230   2.07236895805658e-60   8.60295641160371e-07   9.46719966357321e-15   4.12821454675680e-13   1.31171729720370e-11   3.81510054578952e-11   1.79875652995137e-11   1.25326516716420e-12   7.03791398952931e-14   1.03028252628836e-15   2.59959563711081e-18   2.48133606311440e-21   6.83871113197945e-25   1.46766999796151e-28   2.16453490655537e-32   5.79373174936671e-37   1.94581460146088e-41   7.06420430595710e-46   1.67204479818367e-50   7.70413763462493e-55   3.78224158398441e-58   1.37281144397517e-63  4.39724958343154e-147  1.25250443865450e-159   1.12855705520638e-65   5.14395419289665e-67   1.29411118360120e-68   2.49364835019662e-70   8.13031588485834e-72   1.72365239539344e-73   1.04565818129699e-74   3.22529496519093e-76   4.59702148960412e-78   2.61427255723069e-79   3.13301778988587e-81   4.96648945365109e-83   3.99336388910374e-85   9.86907620920988e-87   3.20458890253479e-89   6.16833533018912e-92   9.75797949516958e-95   1.62424453857251e-97  9.91233436530997e-101  4.85483371868229e-105  2.92211966844822e-108  5.21852488514558e-112  8.42108169454560e-116  1.09706146698195e-119  2.49389876234980e-123  3.57319895609541e-127  3.71439965057312e-131  1.24570524838663e-135  3.68632836372671e-114   3.22335580348941e-57   8.90286977531083e-58   2.85808364529429e-65   1.60014113214287e-59   5.75733307940186e-57   2.61829033529805e-57   5.06035011280643e-61   3.18657096808119e-65   1.28228426980211e-62   1.82234914158492e-61   3.45708171876415e-63   1.85242209125194e-61   2.00303507648610e-60   1.59250395373906e-60   2.50951880574554e-60   3.90830844460982e-65   2.39472454716706e-65   5.14308575818074e-63   1.29310727055882e-64   2.86613101430925e-66   9.43464788189104e-66   6.46624984233306e-67   5.41059447884129e-68   2.69570240027156e-69   2.81844239337909e-67   1.31389807547773e-66   7.49420177245358e-64   9.03088489630436e-66   5.96970417968850e-63   2.68892392552665e-62   4.30317867469376e-60   3.58222966815992e-60   4.49701743857208e-60   4.50473530807945e-59   4.49387171507392e-60   3.21474954476785e-62   2.43235261189997e-66   1.13176717714060e-63   4.97069799190413e-61   2.57419657118339e-63   2.00192077330777e-67   3.88907217707821e-68   8.36336242601317e-72   4.50287665047478e-77   4.32967327134908e-82   5.93691686748614e-83   1.18306409464038e-83   7.99771358841585e-88   1.99065379537167e-89   1.56484381771354e-89   1.82763438221459e-92   8.33650343043481e-92   4.36096529583083e-92   4.93902218602753e-92   1.77259793342733e-89   2.29962150432635e-89   2.90037552231766e-87   5.90939423070274e-86   4.22453366558123e-86   4.59859721641233e-90   1.09026330101150e-91   6.46399944206147e-91   1.40110168638997e-86   4.95382576312357e-85   6.67005153091918e-88   2.21250069663779e-94  4.72097591456403e-100  1.27187927106514e-110  2.70158833903163e-122  6.00452683354467e-145  1.33339752333067e-159  7.52885749979847e-160  7.07201315221435e-140   9.81717992000537e-99   8.73522884190820e-52   1.85611562236629e-16   9.99999995669433e-01   1.00000000000000e+00   1.00000000000001e+00   1.87389881320394e-22  2.85394184153092e-129  5.80001730743671e-258   0.00000000000000e+00   0.00000000000000e+00   0.00000000000000e+00   0.00000000000000e+00   0.00000000000000e+00   0.00000000000000e+00   0.00000000000000e+00   0.00000000000000e+00   0.00000000000000e+00   0.00000000000000e+00   0.00000000000000e+00   0.00000000000000e+00   0.00000000000000e+00   0.00000000000000e+00   0.00000000000000e+00   0.00000000000000e+00   0.00000000000000e+00   0.00000000000000e+00   0.00000000000000e+00   0.00000000000000e+00   0.00000000000000e+00   0.00000000000000e+00  3.45845952088873e-323  1.40413456548082e-320  2.42092166462211e-322  4.21437995902583e-321   0.00000000000000e+00   0.00000000000000e+00   0.00000000000000e+00   0.00000000000000e+00   0.00000000000000e+00   0.00000000000000e+00   0.00000000000000e+00   0.00000000000000e+00   0.00000000000000e+00   0.00000000000000e+00   0.00000000000000e+00   0.00000000000000e+00   0.00000000000000e+00   0.00000000000000e+00   0.00000000000000e+00   0.00000000000000e+00   0.00000000000000e+00   0.00000000000000e+00   0.00000000000000e+00   0.00000000000000e+00   0.00000000000000e+00   0.00000000000000e+00   0.00000000000000e+00   0.00000000000000e+00   0.00000000000000e+00   0.00000000000000e+00   0.00000000000000e+00   0.00000000000000e+00   0.00000000000000e+00   0.00000000000000e+00   0.00000000000000e+00   0.00000000000000e+00   0.00000000000000e+00   0.00000000000000e+00   0.00000000000000e+00   0.00000000000000e+00   0.00000000000000e+00   0.00000000000000e+00   0.00000000000000e+00   0.00000000000000e+00   0.00000000000000e+00  4.21847415816166e-300  5.88751485065587e-124   1.58838619467382e-15   4.92966122757809e-01   5.39146951932858e-01   5.77091569448117e-01   9.40089093997316e-01   9.83644930990323e-01   9.93668481239614e-01   9.72380463357409e-01   5.81830706500895e-01   1.29639867515804e-02   1.44303585548929e-04   8.22887573388731e-07   2.23565753141793e-09   5.96869884443294e-12   7.80983547606979e-15   9.27694239063308e-18   5.93030377386629e-21   3.11872115288374e-24   4.09473442161912e-27   2.93696015679390e-30   5.96470943213897e-33   3.22580523028536e-55  4.09678542921230e-124   2.99033098404814e-96   2.39382724017780e-42   3.84872773998400e-44   3.84615506030115e-46   3.52407925860983e-48   3.93335783591185e-50   1.55046438361309e-52   8.38858708308730e-55   1.52759166503356e-57   1.13582705794327e-60   3.61686798249657e-63   3.08070399909362e-66   3.83843608649151e-69   2.44538073998177e-72   6.12296167187731e-75   2.97107279399978e-78   1.16917950554290e-81   5.18726348144614e-85   3.23090616382806e-88   7.87299881204650e-92   7.48096685812097e-96   3.50718722219517e-99  5.42106001335715e-103  2.21102042534984e-106  4.21118677450262e-110  1.57857525483157e-113  3.10616257051374e-117  8.25212220062746e-121  1.12545778146991e-124   6.79051706770672e-72   2.28412574376874e-57   1.82532185732142e-59   7.56964134221898e-63   2.96647145888638e-63   9.20938467989886e-62   1.20603653714286e-59   5.02622393662128e-57   2.52038425621478e-56   1.96863296550980e-56   8.68916706727471e-58   2.30111859278272e-58   1.12139887130817e-58   6.75521584931800e-57   4.23744999689135e-57   1.09898607287006e-61   3.98190784672523e-65   4.67195351858256e-64   3.44030544497858e-61   9.60426884755474e-60   2.44486671082472e-62   1.20696401678345e-64   9.42836447151533e-64   2.60810257382248e-62   6.78337758454314e-65   1.58942922755009e-64   2.72548484515666e-60   1.57424981138422e-58   7.74218058467004e-57   3.49944104418427e-56   1.44617337389117e-55   4.55165975650359e-54   9.19603189016260e-53   8.21058386771220e-59   9.88998417678085e-61   9.13489900249075e-62   1.10385222840116e-62   5.50694071133474e-67   2.90461294637391e-70   4.29342416387396e-74   8.64393968662077e-80   9.13075553403553e-86   3.97155015256833e-88   1.22544589380950e-86   1.08937933760810e-89   5.74990442177958e-91   2.50271518997954e-90   2.21102614414694e-84   4.78452305759757e-81   1.38726913592610e-83   3.86644583808095e-84   9.87273473637069e-81   2.66426570226098e-77   1.15939840888817e-74   6.41048614422469e-77   7.59290669927778e-76   7.10404305811382e-76   4.01196936668616e-77   8.41725460991685e-77   1.48002225961402e-77   4.34389437810514e-79   6.17975477649807e-90  1.64330998335713e-102  1.06022193261912e-113  3.56596209791305e-123  2.61398530673120e-111   2.60199719042469e-68   1.05003935447056e-26   2.02864266435039e-04   1.00000000000001e+00   1.00000000000001e+00   1.00000000000000e+00   5.40698258115142e-47  1.92854394009876e-156  5.44763274162778e-288   0.00000000000000e+00   0.00000000000000e+00   0.00000000000000e+00   0.00000000000000e+00   0.00000000000000e+00   0.00000000000000e+00   0.00000000000000e+00   0.00000000000000e+00   0.00000000000000e+00   0.00000000000000e+00   0.00000000000000e+00   0.00000000000000e+00  9.88131291682493e-324  3.04700906201682e-317  5.26234133106970e-311  3.39580590417125e-305  1.95617572568345e-302  9.90360759204795e-301  2.68522993203222e-294  4.11819897464991e-292  1.28439567729329e-293  7.05200968510133e-289  7.62961820668761e-288  1.15700705277717e-290  3.95448696566924e-288  9.02945563907404e-294  2.64593783011810e-297  1.44548850875650e-285  1.81729097691043e-287  4.00791895570169e-289  1.20754981219044e-290  4.30968059598732e-290  4.65632189987945e-289  7.63590906946070e-294  2.57276692650166e-291  1.86462694446193e-295  2.61995586190648e-294  3.91395286872811e-299  6.63706307040227e-303  3.47353499528875e-304  6.31458334024218e-302  2.18647368004853e-306  4.05979395372343e-307  8.02169476329825e-310  1.64404576041833e-312  1.14862723216334e-316   0.00000000000000e+00   0.00000000000000e+00   0.00000000000000e+00   0.00000000000000e+00   0.00000000000000e+00   0.00000000000000e+00   0.00000000000000e+00   0.00000000000000e+00   0.00000000000000e+00   0.00000000000000e+00   0.00000000000000e+00   0.00000000000000e+00   0.00000000000000e+00   0.00000000000000e+00   0.00000000000000e+00   0.00000000000000e+00   0.00000000000000e+00   0.00000000000000e+00   0.00000000000000e+00   0.00000000000000e+00   0.00000000000000e+00  2.75432453183059e-235   1.62297352798912e-84   2.53681787656165e-04   5.09644596519349e-03   6.19124686653454e-02   5.24882236801455e-01   7.82866269284918e-01   9.52073065803040e-01   9.86238269560852e-01   9.94421729150829e-01   9.95745850424499e-01   2.84078110220758e-01   1.51630133518017e-04   3.31817319191731e-08   3.74155259638302e-12   1.05576194672303e-15   2.40469694416611e-19   9.88281448457836e-23   3.60047879830972e-26   2.36886008740246e-29   4.45697392563649e-32   3.56718759878566e-35   6.90654246058280e-38   2.94407855277655e-81  3.58121660818442e-153   1.72131357567213e-74   1.76953408036485e-47   1.42243163068450e-49   5.51166538103029e-52   1.59370503040946e-54   4.58582660792872e-57   5.94285365270853e-60   1.39667656023592e-62   1.03617690863481e-65   3.21590642349997e-69   2.93404059522751e-72   6.59196835992098e-76   1.81778541511503e-79   2.38977100387520e-83   1.15192067429627e-86   9.60904202326784e-91   5.97173165783648e-95   4.29507914322521e-99  7.60772476151104e-103  5.51840701342374e-107  5.98681811321646e-112  5.20090487110480e-116  1.98157950005050e-120  1.86417192548531e-124  2.14847977842136e-128  1.60331445070094e-132  2.01197794325728e-136  2.41518728515151e-140  1.18466884065242e-137   3.86004342281588e-58   7.12301290680824e-56   3.65848974201613e-56   5.51479630446172e-58   6.74097138263645e-58   4.29472647238807e-54   1.82797443148729e-55   4.63901836728717e-59   6.23526403510991e-61   3.29972694339575e-60   1.11111888483929e-56   5.83320338200744e-58   5.85704017354224e-62   1.49963120213222e-60   3.11337477648152e-58   1.77771322343407e-58   9.05330132952627e-60   1.46394177275902e-60   4.75434337787621e-60   1.06306755097536e-59   8.78956622238217e-61   3.53158749344426e-63   5.82276890495343e-62   1.95382979378850e-60   4.08076457726111e-63   9.44294312832534e-63   5.69236554582525e-61   1.12454938571665e-60   2.50684667162067e-60   2.97115417233044e-58   3.39931251367500e-53   1.76602206552533e-53   3.73710725051092e-56   4.68502554084528e-59   2.93407358713202e-61   6.83438887138579e-58   1.57332268027691e-58   7.25267709355498e-64   7.52542343441329e-65   4.20064621879534e-65   2.88533910880055e-67   2.51472508548892e-75   4.13114109567155e-79   7.44748915887105e-80   1.63118685661060e-81   3.12515214558049e-85   2.42506798088874e-85   4.54211197799142e-86   3.10810243983068e-88   2.73508497866444e-90   3.64631810857732e-91   1.11967216022278e-86   5.52167192812967e-85   2.71406155068510e-88   2.61360361409942e-91   1.77212669253117e-88   7.67829617284198e-86   7.63053217875206e-87   1.41192045741257e-86   3.03501217237791e-87   2.15625462988171e-84   2.51756269205556e-85   6.50241858262224e-88   3.21432426179232e-94  1.03653029186896e-108  3.76217246147457e-123  9.64913983177541e-148  1.16175898753700e-157  1.49374947637718e-144  7.31657201393682e-102   1.33850518967088e-46   9.78922836713416e-08   1.00000000000001e+00   9.99999999999995e-01   6.50815953471131e-42  3.53315208403906e-197   0.00000000000000e+00   0.00000000000000e+00   0.00000000000000e+00   0.00000000000000e+00   0.00000000000000e+00   0.00000000000000e+00   0.00000000000000e+00   0.00000000000000e+00   0.00000000000000e+00   0.00000000000000e+00   0.00000000000000e+00   0.00000000000000e+00   0.00000000000000e+00   0.00000000000000e+00   0.00000000000000e+00   0.00000000000000e+00   0.00000000000000e+00   0.00000000000000e+00   0.00000000000000e+00   0.00000000000000e+00   0.00000000000000e+00   0.00000000000000e+00   0.00000000000000e+00   0.00000000000000e+00   0.00000000000000e+00   0.00000000000000e+00   0.00000000000000e+00   0.00000000000000e+00   0.00000000000000e+00   0.00000000000000e+00   0.00000000000000e+00   0.00000000000000e+00   0.00000000000000e+00   0.00000000000000e+00   0.00000000000000e+00   0.00000000000000e+00   0.00000000000000e+00   0.00000000000000e+00   0.00000000000000e+00   0.00000000000000e+00   0.00000000000000e+00   0.00000000000000e+00   0.00000000000000e+00   0.00000000000000e+00   0.00000000000000e+00   0.00000000000000e+00   0.00000000000000e+00   0.00000000000000e+00   0.00000000000000e+00   0.00000000000000e+00   0.00000000000000e+00   0.00000000000000e+00   0.00000000000000e+00   0.00000000000000e+00   0.00000000000000e+00   0.00000000000000e+00   0.00000000000000e+00   0.00000000000000e+00   0.00000000000000e+00   0.00000000000000e+00   0.00000000000000e+00   0.00000000000000e+00   0.00000000000000e+00   0.00000000000000e+00   0.00000000000000e+00   0.00000000000000e+00   0.00000000000000e+00   0.00000000000000e+00   0.00000000000000e+00   0.00000000000000e+00   0.00000000000000e+00  1.67948957059294e-199   3.25169114171228e-55   3.56397255211535e-03   1.07583811161279e-06   7.36468261507828e-07   3.24414062796830e-07   7.97961776598210e-09   1.16488241159225e-10   3.41498149799503e-13   2.40778077076632e-16   2.92939249934605e-19   7.62802764997594e-23   1.47542472359722e-26   1.69122629360943e-30   2.30904414267608e-34   3.48032252645659e-38   1.51006313868095e-42   1.70427351642467e-46   2.18190612653377e-50   3.05005177288950e-54   1.53206127053641e-57   5.12195253645835e-61   4.97817771387201e-64  9.79129943061662e-158  1.07012250198583e-141   1.06748225727225e-66   2.41300940091499e-67   2.34408435574874e-68   1.46147956569954e-69   1.23056343650401e-70   4.89777818918070e-72   3.40641134645105e-73   8.35463788048438e-75   7.77521540091656e-77   3.90132420805474e-78   2.56407289711347e-80   1.72560636236132e-82   4.77200936613898e-85   2.24329201435305e-87   1.14221921658819e-90   6.71777477874165e-94   4.99822875999401e-97  3.98546244200776e-100  1.09189563590166e-103  4.21057358967627e-108  1.13671346827993e-111  1.17080782878578e-115  2.51648785276819e-119  2.05419845064047e-123  2.10039993478828e-127  1.42347267581751e-131  1.42840644712542e-135  5.61138013670669e-140  1.03880001377901e-109   8.57216173947735e-56   7.23238709242264e-55   2.07472193732943e-62   1.88832136577498e-57   4.34760752834610e-57   9.96030025122418e-58   2.43126756023625e-59   1.28909456615410e-65   1.74700733055140e-67   4.42435262547902e-60   7.50292189289181e-62   1.77711901032967e-61   1.19402422375692e-58   1.44773783736698e-59   4.69240842446899e-59   2.61688879802706e-63   2.48172116307918e-61   5.10169997994649e-60   9.00077962902021e-63   1.80701887009338e-65   3.52460564171554e-65   4.06982977499357e-62   2.91933436316005e-62   7.56791006714070e-64   2.94027037688069e-65   1.84309552523217e-65   1.17294694699237e-62   6.97952306258503e-61   2.21067057994903e-59   1.44935994607541e-55   4.40805870528398e-54   1.31046977911097e-55   3.37086537050864e-59   2.07591613589168e-60   9.80762637181972e-58   5.06521762399717e-60   2.57128614371149e-63   8.56982878907640e-64   3.00933404497668e-65   9.33797992216571e-70   1.36389917994840e-79   9.79261689382053e-83   2.00134033382412e-82   1.02785703646975e-83   4.20160415696555e-89   2.92715839610756e-89   2.63434865693863e-86   1.23567607326039e-85   3.35474532380754e-88   1.69391554189751e-92   5.57883750500279e-93   3.05531336904859e-93   2.11201152138063e-94   8.89357376425287e-96   1.68157543563923e-96   4.29028110661935e-93   2.99617475857921e-97   5.58735559315710e-95   1.08367563078041e-93   4.94699444455086e-86   8.21659374331297e-87   4.98115490741870e-88   8.30607701852646e-83   7.31135048905565e-80   1.09973510726707e-81   1.44925360625987e-90  5.34713106137522e-102  2.00100814919665e-119  8.55921635417779e-142  7.94234969934849e-151  5.25800793941581e-119   3.18376410400723e-56   5.40745583325111e-12   9.99999999999988e-01   9.99999999999993e-01   1.19827176316407e-55  2.00712858143758e-185  1.34487356180256e-287   0.00000000000000e+00   0.00000000000000e+00   0.00000000000000e+00   0.00000000000000e+00   0.00000000000000e+00   0.00000000000000e+00   0.00000000000000e+00   0.00000000000000e+00   0.00000000000000e+00   0.00000000000000e+00   0.00000000000000e+00   0.00000000000000e+00   0.00000000000000e+00   0.00000000000000e+00   0.00000000000000e+00   0.00000000000000e+00   0.00000000000000e+00   0.00000000000000e+00   0.00000000000000e+00   0.00000000000000e+00   0.00000000000000e+00   0.00000000000000e+00   0.00000000000000e+00   0.00000000000000e+00   0.00000000000000e+00   0.00000000000000e+00   0.00000000000000e+00   0.00000000000000e+00   0.00000000000000e+00   0.00000000000000e+00   0.00000000000000e+00   0.00000000000000e+00   0.00000000000000e+00   0.00000000000000e+00   0.00000000000000e+00   0.00000000000000e+00   0.00000000000000e+00   0.00000000000000e+00   0.00000000000000e+00   0.00000000000000e+00   0.00000000000000e+00   0.00000000000000e+00   0.00000000000000e+00   0.00000000000000e+00   0.00000000000000e+00   0.00000000000000e+00   0.00000000000000e+00   0.00000000000000e+00   0.00000000000000e+00   0.00000000000000e+00   0.00000000000000e+00   0.00000000000000e+00   0.00000000000000e+00   0.00000000000000e+00   0.00000000000000e+00   0.00000000000000e+00   0.00000000000000e+00   0.00000000000000e+00   0.00000000000000e+00   0.00000000000000e+00   0.00000000000000e+00   0.00000000000000e+00   0.00000000000000e+00   0.00000000000000e+00   0.00000000000000e+00   0.00000000000000e+00   0.00000000000000e+00   0.00000000000000e+00   0.00000000000000e+00  3.84778324981163e-320  7.17921006244090e-112   1.47252235790839e-15   6.38382305146913e-13   5.35049403388606e-10   4.91545970153543e-07   5.49134446676784e-05   2.14129244933669e-03   2.69833747298610e-02   2.10669021122501e-01   6.16481304950668e-01   8.32882288406560e-01   9.30607343004669e-01   9.70939019786051e-01   9.88242604521477e-01   9.95751879062533e-01   4.39077623645476e-01   1.82027897681585e-03   2.44526942380271e-06   9.61496720996791e-10   9.69216551395935e-13   4.83214173169641e-16   7.43612046720119e-19   3.15387955015880e-60  1.55083178302362e-167   1.76217101605130e-60   1.04461098501982e-29   5.24607431489011e-32   1.32155603904440e-34   4.28519515303840e-37   2.33663402847742e-39   5.74488597664856e-42   4.34921666187999e-44   1.67742495373185e-46
   0.00000000000000e+00   0.00000000000000e+00   0.00000000000000e+00   0.00000000000000e+00   0.00000000000000e+00   0.00000000000000e+00   0.00000000000000e+00   0.00000000000000e+00   0.00000000000000e+00   0.00000000000000e+00   0.00000000000000e+00   0.00000000000000e+00   0.00000000000000e+00   0.00000000000000e+00   0.00000000000000e+00   0.00000000000000e+00   0.00000000000000e+00   0.00000000000000e+00   0.00000000000000e+00   0.00000000000000e+00   0.00000000000000e+00   0.00000000000000e+00   0.00000000000000e+00   0.00000000000000e+00   0.00000000000000e+00   0.00000000000000e+00   0.00000000000000e+00   0.00000000000000e+00   0.00000000000000e+00   0.00000000000000e+00   0.00000000000000e+00   0.00000000000000e+00   0.00000000000000e+00   0.00000000000000e+00   0.00000000000000e+00   0.00000000000000e+00   0.00000000000000e+00   0.00000000000000e+00   0.00000000000000e+00   0.00000000000000e+00   0.00000000000000e+00   0.00000000000000e+00   0.00000000000000e+00   0.00000000000000e+00   0.00000000000000e+00   0.00000000000000e+00   0.00000000000000e+00   0.00000000000000e+00   0.00000000000000e+00   0.00000000000000e+00   4.10926075548386e-16   4.91060764846094e-16   0.00000000000000e+00   2.47835363246626e-19   1.65083655690646e-19   9.04072138430276e-21   4.10523600330527e-21   0.00000000000000e+00   0.00000000000000e+00   1.77636002117345e-19   4.00799732788986e-21   1.41641848783480e-21   1.77645249614865e-19   9.20859593257017e-19   1.13135969484119e-17   1.01186904625406e-16   6.96510679754663e-17   2.30047526664593e-17   4.68112850645383e-16   1.33653634323034e-18   4.69471257269727e-18   3.03522155851252e-18   5.94292690219136e-17   3.62594689578291e-18   3.94090635616068e-20   1.74565778351738e-19   5.00687146845205e-18   1.08591700172285e-21   4.70404422495293e-32   1.02023152552578e-41   1.74871198721406e-49   1.01134021286680e-46   1.02341980994517e-24   9.85971689344517e-01   1.93801332053693e-13   3.05554776657855e-49  2.51762378216125e-116  2.15065993250837e-294   0.00000000000000e+00   0.00000000000000e+00   0.00000000000000e+00   0.00000000000000e+00   0.00000000000000e+00   0.00000000000000e+00   0.00000000000000e+00   0.00000000000000e+00   0.00000000000000e+00   0.00000000000000e+00   0.00000000000000e+00   0.00000000000000e+00   0.00000000000000e+00   0.00000000000000e+00   0.00000000000000e+00   0.00000000000000e+00   0.00000000000000e+00   0.00000000000000e+00   0.00000000000000e+00   0.00000000000000e+00   0.00000000000000e+00   0.00000000000000e+00   0.00000000000000e+00   0.00000000000000e+00   0.00000000000000e+00   0.00000000000000e+00   0.00000000000000e+00   0.00000000000000e+00   0.00000000000000e+00   0.00000000000000e+00   0.00000000000000e+00   0.00000000000000e+00   0.00000000000000e+00   0.00000000000000e+00   0.00000000000000e+00   0.00000000000000e+00   0.00000000000000e+00   0.00000000000000e+00   0.00000000000000e+00   0.00000000000000e+00   0.00000000000000e+00   0.00000000000000e+00   0.00000000000000e+00   0.00000000000000e+00   0.00000000000000e+00   0.00000000000000e+00   0.00000000000000e+00   0.00000000000000e+00   0.00000000000000e+00   0.00000000000000e+00   0.00000000000000e+00   0.00000000000000e+00   0.00000000000000e+00   0.00000000000000e+00   0.00000000000000e+00   0.00000000000000e+00   0.00000000000000e+00   0.00000000000000e+00   0.00000000000000e+00   0.00000000000000e+00   0.00000000000000e+00   0.00000000000000e+00   0.00000000000000e+00   0.00000000000000e+00   0.00000000000000e+00   0.00000000000000e+00   0.00000000000000e+00   0.00000000000000e+00   0.00000000000000e+00   0.00000000000000e+00  2.85271720018545e-230   1.42592050255524e-60   6.42930114459028e-07   4.54629699385832e-05   7.41474756604872e-13   3.48770535373540e-11   1.09118194321746e-10   1.14761826490987e-10   1.70078509021502e-11   4.88864813314901e-13   5.38833194414649e-15   1.40590452811724e-17   1.37778003051817e-20   4.26683345039158e-24   5.32379670721622e-28   4.95274638894091e-32   1.43685934533984e-36   5.10404356096139e-41   1.04733770753587e-45   2.03059713535538e-50   1.00440721415663e-54   4.93772539287342e-58   1.53797081743438e-63  4.39083235486441e-147  1.32810456926309e-159   1.14127856903190e-65   4.97543390581097e-67   1.33229499451754e-68   2.74052430918860e-70   7.67392378501954e-72   1.75119140406961e-73   1.17543838449461e-74   4.47872326843679e-76   6.79635614609351e-78   4.52432100436703e-79   6.66796401945398e-81   1.14596408387918e-82   7.63845169352841e-85   1.73249923826216e-86   1.28034700006459e-88   4.22046637426917e-91   5.23345871514261e-94   7.44241048279632e-97  7.59571494111653e-100  1.61693006072509e-103  2.45825822264001e-107  3.50663071368974e-111  1.28705116884648e-114  1.28287706739545e-118  2.20726832472606e-122  2.50827078204281e-126  5.88565349767456e-130  2.49452109087495e-134   5.79450789399854e-69   4.76301083664460e-14   1.23996137781123e-13   2.97903172134385e-19   4.25274511620228e-15   3.18644951721986e-15   1.94502941582434e-15   5.53486103034769e-16   1.20675466820885e-19   5.96508632461691e-21   9.82243466542283e-19   2.75470847637223e-18   1.40289743728965e-19   1.23331531564911e-17   5.51002222310424e-19   3.26460467329641e-18   6.00476163024242e-19   4.91715026452131e-22   5.72960770287370e-22   5.57996807870477e-21   7.70842632282632e-22   3.18144320672098e-23   2.26360542449475e-22   9.65779668889744e-25   3.37376923179540e-23   1.97532215013750e-24   9.35209211943808e-24   6.25129032777016e-23   1.38617413480048e-23   2.44142058583775e-22   3.81078073281108e-24   1.67905895889983e-23   2.13523153378603e-21   1.87235946007989e-22   5.68377490824136e-22   6.79967350574327e-25   1.64357812756675e-23   2.98942108619638e-27   4.76046334076952e-29   1.41955451677382e-28   7.08652713877685e-27   3.33950840408427e-29   4.01746883662674e-33   2.19537920561207e-33   4.50887984153701e-36   6.73151747255203e-39   3.62257663347348e-43   7.08659642384264e-44   6.75152291049791e-43   6.30409834454808e-45   1.77258525046160e-45   1.00312930733072e-47   3.56105576206594e-45   1.09304713433545e-46   4.57559134138708e-46   1.94322061059602e-45   8.94793331647980e-45   1.16245363226816e-43   3.51098087156956e-41   2.64532891717286e-41   7.76500452327208e-43   1.84437452389481e-44   2.22793237572517e-44   6.79193141064780e-43   1.69089181353126e-40   4.39644520776650e-41   1.23366759473428e-41   6.29358067792256e-45   8.38894561670535e-50   6.19004347689016e-55   9.85373698055102e-65   4.66173580302387e-79   2.20609795691707e-89   8.44422059201717e-89   7.76412458169530e-74   1.89220865017415e-45   1.41901371216200e-15   9.98049835121722e-01   4.33055315554235e-09   3.04633711444903e-41   1.56028657442946e-54   2.94845845053166e-89  1.40682665445553e-161  2.82021415481354e-265  5.92878775009496e-323   0.00000000000000e+00   0.00000000000000e+00   0.00000000000000e+00   0.00000000000000e+00   0.00000000000000e+00   0.00000000000000e+00   0.00000000000000e+00   0.00000000000000e+00   0.00000000000000e+00   0.00000000000000e+00  5.63883495045446e-317  8.33264154685396e-307  2.64646889746201e-302  5.08232218797621e-298  1.66787530388568e-290  6.80275920668534e-286  3.48439304862625e-280  1.90730628577922e-280  4.81271101931094e-275  1.19682755263042e-275  9.56549044855618e-274  9.87930274925164e-270  7.89920672757809e-269  3.21520136478324e-267  1.06449181048267e-273  4.64471954551453e-277  1.01134596274852e-273  3.43410362607489e-279  1.84196016093492e-278  7.29602196212766e-282  5.68450676925186e-278  2.97700324590796e-280  1.75187714857081e-282  1.76656488759137e-289  1.26737825468250e-289  2.06687046921814e-298  1.17041576725662e-296  7.44050636968367e-299  2.23697775497646e-306  5.01578106693174e-310  7.42591288110779e-317  2.26739570583340e-318   0.00000000000000e+00   0.00000000000000e+00   0.00000000000000e+00   0.00000000000000e+00   0.00000000000000e+00   0.00000000000000e+00   0.00000000000000e+00   0.00000000000000e+00   0.00000000000000e+00   0.00000000000000e+00   0.00000000000000e+00   0.00000000000000e+00   0.00000000000000e+00   0.00000000000000e+00   0.00000000000000e+00   0.00000000000000e+00   0.00000000000000e+00   0.00000000000000e+00   0.00000000000000e+00   0.00000000000000e+00   0.00000000000000e+00   0.00000000000000e+00   0.00000000000000e+00  3.11304801030979e-300  5.11018094594160e-124   1.57109964442219e-15   5.72675885899367e-01   3.64721251428137e-01   3.74587921611961e-01   4.12811488507860e-01   5.93097737139578e-02   1.63046244656828e-02   6.25801688165567e-03   2.53950611147375e-02   3.55935289917758e-02   6.47315215037226e-04   2.90702391092732e-06   7.33728655738672e-09   1.23638053593986e-11   8.72754908214999e-15   1.09268453378027e-17   6.60644707093229e-21   3.10689543840223e-24   3.99728974129964e-27   2.95535343651319e-30   5.89830888882409e-33   2.91277192485017e-55  3.81047962877368e-124   2.88997251653309e-96   2.32860335760121e-42   3.69166491522255e-44   4.03901920958882e-46   3.96396548533450e-48   4.86903316748802e-50   2.05677009055441e-52   1.84450390460510e-54   3.55596211446773e-57   2.94032075564211e-60   1.00465647390920e-62   8.99127280630083e-66   1.34420507328592e-68   7.31306809483117e-72   1.27693084814473e-74   1.12733369226702e-77   6.77400764474919e-81   1.98561932768072e-84   9.88179655084314e-88   3.80807960619377e-91   3.59999154640559e-95   1.66521181010648e-98  1.54452159740786e-102  4.90540990416570e-106  1.54250860928200e-109  3.48597710755812e-113  6.93907810392461e-117  1.87434689036773e-120  2.58799272553084e-124   6.14981868036727e-29   4.80217509391233e-16   3.87042552239058e-16   7.42514444253727e-18   3.84584634930361e-17   1.32701608344753e-17   4.78215241508563e-17   1.90178181581270e-16   6.56463119688164e-16   4.18951536969735e-16   2.45233976644629e-15   5.05288001742733e-18   1.19160190328210e-17   3.72902882718656e-18   1.09579937517098e-17   6.78734423529842e-18   6.27589064310812e-21   3.24723909462758e-22   2.22352467825311e-22   1.90464655491909e-20   8.10031032624334e-20   1.67494389539746e-21   1.48823895506748e-22   1.21957407447136e-22   8.32102052344038e-22   6.83002019726061e-24   2.04347278948243e-23   1.91922066485371e-21   5.68461917125670e-21   2.39271133129036e-20   3.17587111347158e-21   4.35354273954372e-21   6.99508788490613e-21   3.59395804989498e-23   3.32042679707222e-27   9.59549841832321e-28   2.81332042623020e-29   9.86303749126039e-30   1.92094392652867e-33   6.85020212199180e-35   1.28464504427160e-37   1.73709875715493e-40   5.57717203453614e-45   4.06143405757334e-44   1.02336560238350e-42   7.94393581758700e-44   9.49952306687238e-44   4.59169889679276e-43   1.73888634348265e-37   5.78731988733925e-37   1.13705341411314e-37   6.96786125691654e-38   2.48977548515205e-36   1.58316008203566e-33   1.19876173888724e-32   7.62491270203061e-34   9.47065852415843e-33   1.27686746571977e-32   1.53838118154135e-34   1.33857085618254e-34   5.11198901176652e-34   2.42811956096791e-36   4.34980004271649e-43   3.56932446131001e-50   2.03955190515654e-59   6.12829972408456e-64   1.28484784855963e-54   2.42389214434489e-26   1.30682064614096e-04   9.99797135544463e-01   1.04547080806475e-17   4.82091018307196e-46   1.18165209401594e-69  6.80358394457108e-105  1.52135039355676e-185  3.51261545437084e-279   0.00000000000000e+00   0.00000000000000e+00   0.00000000000000e+00   0.00000000000000e+00   0.00000000000000e+00   0.00000000000000e+00  9.88131291682493e-324  1.59867580219859e-308  2.17197211533644e-303  1.77209784947433e-293  2.77688202006979e-284  2.08963975063220e-271  5.98283072447628e-266  3.30317184067106e-259  9.36862820656075e-255  6.48826879198010e-252  2.56977516737213e-249  5.24456207092673e-246  2.32492451472804e-245  8.29116426387016e-241  3.83289579709630e-241  6.48644819688600e-241  5.65343490557236e-244  1.22639283709276e-241  6.02252020866538e-246  1.89033302225202e-249  8.39048321989660e-240  7.37685365527970e-242  2.15653510690972e-244  1.99263216058660e-244  6.53753516041586e-248  7.63284941399113e-246  1.09368632296465e-248  3.21977932395753e-250  1.18124521709280e-253  1.28607532277440e-248  1.07261542419406e-251  6.25917492588243e-259  5.69911713367648e-262  2.01318642270682e-259  7.55847985054024e-261  1.54513794023183e-262  1.00634263274280e-263  8.31812807503563e-266  3.77534609466145e-266  4.16779739928357e-275  1.10665687860191e-279  2.08646526777528e-280  1.01157470343608e-287  3.45826510120022e-294  8.46794751867367e-298  1.37360564354021e-302  1.59572934387287e-307  2.13135279657689e-313  2.56914629903094e-318  1.01234050832871e-320  7.04290578146697e-320   0.00000000000000e+00   0.00000000000000e+00   0.00000000000000e+00   0.00000000000000e+00   0.00000000000000e+00   0.00000000000000e+00   0.00000000000000e+00  3.34929077578364e-318  1.99939889861583e-313  3.39414971528085e-235   4.09921551624612e-84   1.13586656254811e-03   2.13609554195840e-02   1.78348609520735e-01   7.70755841939702e-01   4.43804729374579e-01   2.13368186604708e-01   4.76889460280151e-02   1.37382542885331e-02   5.57129143130339e-03   1.73885302723548e-03   2.55855574177494e-04   7.76611040898289e-08   1.34591831901368e-11   2.25826637719998e-15   3.40838260343328e-19   1.51842373321116e-22   5.67499432787695e-26   2.56423017128524e-29   4.18191387024600e-32   3.57744726271639e-35   7.10577248089724e-38   2.97618172371160e-81  3.28593192366712e-153   1.71788341196308e-74   1.74531443919668e-47   1.36320573814578e-49   6.43466238517279e-52   2.09239972371650e-54   6.96319926227821e-57   7.13974431756992e-60   2.47351164190116e-62   2.52934194315492e-65   7.48911304255514e-69   9.97197735838310e-72   2.02224160620407e-75   7.00472243443470e-79   7.87712689506661e-83   2.62325080014978e-86   4.20014971051012e-90   4.18728663562489e-94   1.97869642630995e-98  1.39357452844091e-102  2.11691663886434e-106  6.40533377411650e-111  2.58833459250004e-115  7.71768145048574e-120  1.27668739211909e-123  2.58377996738412e-127  1.43943569773373e-131  1.33825437216397e-135  9.07131341539248e-140   5.91646387928568e-93   9.77437934159350e-15   6.90337050370003e-14   7.87123209794273e-14   2.36191854127908e-14   4.12390811604652e-15   7.46206500576061e-15   9.17098388268521e-14   8.23890568527925e-15   7.07071229958087e-17   7.51606067492095e-18   6.93857161615286e-18   2.92186828190332e-16   3.25449957211976e-16   4.02117078658605e-19   4.99413999661450e-18   9.96604382067284e-18   1.67107007069178e-17   4.03951868853095e-19   3.70790270820607e-19   2.70709324362055e-19   1.81737226836111e-19   3.35563244416774e-21   5.62442063087276e-22   8.07505789128704e-21   5.20105310556181e-21   1.01265749783211e-22   3.44395711640260e-23   3.66911013917936e-22   5.36520039793902e-23   4.43258364824460e-23   8.53681931710193e-23   1.82651452704975e-19   2.49500460553447e-21   2.02238857608226e-24   4.60800534520950e-27   1.42566040746677e-28   1.38956022278678e-26   1.16961902268348e-28   3.07810058042629e-32   4.71515219811847e-33   1.25691712278585e-33   1.71255115227136e-34   7.77160034309806e-41   3.45082005354017e-40   3.48132254662592e-42   5.19528669059970e-44   8.87088128015544e-46   3.48865880664857e-45   4.86496357320036e-45   1.78859671965985e-45   6.89662857046562e-47   1.18673603270212e-45   3.01796442763973e-43   5.95051361252517e-43   3.53416244538031e-44   5.37791597874740e-46   2.44799271891643e-44   3.23624426066357e-43   2.73289637674447e-43   1.44942769667761e-44   1.15842807375983e-42   1.06659852028532e-41   8.45134009555792e-42   8.27902813971461e-43   1.12338481424491e-48   1.12842418661441e-54   3.95319749501888e-65   4.64186013787822e-81   1.71279854060287e-87   2.46685243489701e-77   1.32549792241394e-47   9.09532788311030e-13   9.99999901650460e-01   7.00682190652697e-24   6.05211236336680e-53  2.29362534609376e-126  4.31549337798084e-311   0.00000000000000e+00   0.00000000000000e+00   0.00000000000000e+00   0.00000000000000e+00   0.00000000000000e+00   0.00000000000000e+00   0.00000000000000e+00   0.00000000000000e+00   0.00000000000000e+00   0.00000000000000e+00   0.00000000000000e+00   0.00000000000000e+00   0.00000000000000e+00   0.00000000000000e+00   0.00000000000000e+00   0.00000000000000e+00   0.00000000000000e+00   0.00000000000000e+00   0.00000000000000e+00   0.00000000000000e+00   0.00000000000000e+00   0.00000000000000e+00   0.00000000000000e+00   0.00000000000000e+00   0.00000000000000e+00   0.00000000000000e+00   0.00000000000000e+00   0.00000000000000e+00   0.00000000000000e+00   0.00000000000000e+00   0.00000000000000e+00   0.00000000000000e+00   0.00000000000000e+00   0.00000000000000e+00   0.00000000000000e+00   0.00000000000000e+00   0.00000000000000e+00   0.00000000000000e+00   0.00000000000000e+00   0.00000000000000e+00   0.00000000000000e+00   0.00000000000000e+00   0.00000000000000e+00   0.00000000000000e+00   0.00000000000000e+00   0.00000000000000e+00   0.00000000000000e+00   0.00000000000000e+00   0.00000000000000e+00   0.00000000000000e+00   0.00000000000000e+00   0.00000000000000e+00   0.00000000000000e+00   0.00000000000000e+00   0.00000000000000e+00   0.00000000000000e+00   0.00000000000000e+00   0.00000000000000e+00   0.00000000000000e+00   0.00000000000000e+00   0.00000000000000e+00   0.00000000000000e+00   0.00000000000000e+00   0.00000000000000e+00   0.00000000000000e+00   0.00000000000000e+00   0.00000000000000e+00   0.00000000000000e+00   0.00000000000000e+00   0.00000000000000e+00  2.49175621509237e-199   6.39056458099850e-55   7.74812176432354e-03   7.86979847347892e-02   1.34179393734332e-05   6.08008605956487e-06   1.91608647106455e-07   1.71445982924638e-09   5.65253678531645e-12   5.36662347291042e-15   1.49222509033850e-18   4.19900340286506e-22   6.86101308836830e-26   6.72988430313483e-30   5.18001131533070e-34   4.96508472433528e-38   2.51620684469092e-42   2.64162103046533e-46   2.80907498409315e-50   3.53359916755648e-54   1.64286499291543e-57   5.28338676932533e-61   4.82475720204124e-64  9.38409107517082e-158  1.03854108682085e-141   9.76627673618792e-67   2.35740680439697e-67   2.94427974262725e-68   2.34364442458091e-69   1.61142637306883e-70   6.07014914263775e-72   6.78830075518278e-73   2.08403133133213e-74   2.15784696470877e-76   8.27321172452331e-78   1.23233269828796e-79   9.26272913541609e-82   2.28473195852756e-84   1.44367499712589e-86   1.58183278477799e-89   8.49691066689148e-93   3.85417002812698e-96   3.24073191595470e-99  1.64754886366040e-102  1.64857517123711e-106  2.50634948002514e-110  1.38825162761450e-114  3.05161984490261e-118  4.83550714610970e-122  4.97568823983623e-126  2.39814959449623e-130  2.40977736586961e-134  1.26663842344385e-138   4.12621419865262e-65   9.27971360754113e-14   1.07722793209942e-13   5.78138462617053e-17   8.37218950101755e-16   1.37198629706417e-15   3.41646985130935e-16   4.91679925902053e-17   3.94013284713303e-21   7.39159017553409e-24   6.44892932972530e-19   9.59796279627677e-19   7.73109330043738e-19   2.86777278833636e-18   1.28370082593408e-18   4.59106317218292e-18   8.88386546606967e-20   3.62856555877313e-21   2.33849080744637e-20   1.46335548799622e-20   1.27988990341804e-21   8.46622619362629e-24   1.33149963233306e-23   5.60740645978091e-23   1.48489233293766e-22   9.49771019727773e-24   5.03195504216516e-25   5.76813015828733e-25   4.38030618751636e-24   5.53932845144496e-23   9.75190968948396e-24   2.42353527824419e-21   2.86108156624313e-21   5.64282074078789e-25   4.93835807777839e-28   3.61393929008025e-29   3.98952010216468e-27   4.33962041800006e-29   1.15705929079172e-32   1.46753059873484e-34   4.38296260391985e-34   7.35830628641850e-40   5.18209936688681e-43   8.62897566609666e-46   3.14294458609765e-45   1.45995542977478e-46   4.32773051310933e-49   2.31435757647105e-48   2.67972190524353e-47   1.73254548235967e-44   6.70258898430022e-47   3.79630502028203e-50   5.46824032320340e-48   2.70331569872264e-49   4.14191782983679e-50   8.37345030420450e-52   8.35526316513479e-50   1.80535281904754e-49   4.42340004778515e-49   6.45493101534771e-49   1.97346753120868e-45   2.27704999930412e-44   2.64350397373738e-42   1.58074089414872e-42   3.96547238503166e-40   9.20543150766104e-38   4.76812198490392e-40   2.07925165149154e-44   1.24124263848070e-52   2.56997150963704e-63   3.29063154357002e-79   1.80986242213159e-85   1.82567089467344e-61   1.99139329265887e-18   9.99999412101288e-01   5.89968242808592e-20   1.48455449290491e-55  9.33376115672796e-134  4.39212331385693e-296   0.00000000000000e+00   0.00000000000000e+00   0.00000000000000e+00   0.00000000000000e+00   0.00000000000000e+00   0.00000000000000e+00   0.00000000000000e+00   0.00000000000000e+00   0.00000000000000e+00   0.00000000000000e+00   0.00000000000000e+00   0.00000000000000e+00   0.00000000000000e+00   0.00000000000000e+00   0.00000000000000e+00   0.00000000000000e+00   0.00000000000000e+00   0.00000000000000e+00   0.00000000000000e+00   0.00000000000000e+00   0.00000000000000e+00   0.00000000000000e+00   0.00000000000000e+00   0.00000000000000e+00   0.00000000000000e+00   0.00000000000000e+00   0.00000000000000e+00   0.00000000000000e+00   0.00000000000000e+00   0.00000000000000e+00   0.00000000000000e+00   0.00000000000000e+00   0.00000000000000e+00   0.00000000000000e+00   0.00000000000000e+00   0.00000000000000e+00   0.00000000000000e+00   0.00000000000000e+00   0.00000000000000e+00   0.00000000000000e+00   0.00000000000000e+00   0.00000000000000e+00   0.00000000000000e+00   0.00000000000000e+00   0.00000000000000e+00   0.00000000000000e+00   0.00000000000000e+00   0.00000000000000e+00   0.00000000000000e+00   0.00000000000000e+00   0.00000000000000e+00   0.00000000000000e+00   0.00000000000000e+00   0.00000000000000e+00   0.00000000000000e+00   0.00000000000000e+00   0.00000000000000e+00   0.00000000000000e+00   0.00000000000000e+00   0.00000000000000e+00   0.00000000000000e+00   0.00000000000000e+00   0.00000000000000e+00   0.00000000000000e+00   0.00000000000000e+00   0.00000000000000e+00   0.00000000000000e+00   0.00000000000000e+00   0.00000000000000e+00  1.13136092241187e-319  1.63287745341074e-111   2.13133490437724e-15   6.08461540213756e-13   5.46024212859361e-10   6.20849275493159e-07   8.35535164996575e-05   5.02028902858957e-03   7.26280706039536e-02   3.43429715085513e-01   6.01278319390132e-01   3.44810405647730e-01   1.62368543297908e-01   6.85689230254461e-02   2.88926638087526e-02   1.17365750763914e-02   3.08810660967529e-03   1.80904786162186e-03   2.69850317090020e-06   1.37107763279391e-09   1.22366854741081e-12   5.97293693383249e-16   7.23706209301186e-19   3.06943363088424e-60  1.84913847816464e-167   1.63892664237844e-60   1.02087326521169e-29   5.56268477679378e-32   1.35171602439835e-34   4.28677199730169e-37   2.76039633490184e-39   7.73995565101950e-42   5.18701199045179e-44   2.87262901822863e-46   6.10930333002042e-49
   0.00000000000000e+00   0.00000000000000e+00   0.00000000000000e+00   0.00000000000000e+00   0.00000000000000e+00   0.00000000000000e+00   0.00000000000000e+00   0.00000000000000e+00   0.00000000000000e+00   0.00000000000000e+00   0.00000000000000e+00   0.00000000000000e+00   0.00000000000000e+00   0.00000000000000e+00   0.00000000000000e+00   0.00000000000000e+00   0.00000000000000e+00   0.00000000000000e+00   0.00000000000000e+00   0.00000000000000e+00   0.00000000000000e+00   0.00000000000000e+00   0.00000000000000e+00   0.00000000000000e+00   0.00000000000000e+00   0.00000000000000e+00   0.00000000000000e+00   0.00000000000000e+00   0.00000000000000e+00   0.00000000000000e+00   0.00000000000000e+00   0.00000000000000e+00   0.00000000000000e+00   0.00000000000000e+00   0.00000000000000e+00   0.00000000000000e+00   0.00000000000000e+00   0.00000000000000e+00   0.00000000000000e+00   0.00000000000000e+00   0.00000000000000e+00   0.00000000000000e+00   0.00000000000000e+00   0.00000000000000e+00   0.00000000000000e+00   0.00000000000000e+00   0.00000000000000e+00   0.00000000000000e+00   0.00000000000000e+00   3.37101247270700e-13   1.45404859567661e-13   0.00000000000000e+00   2.12959749966827e-15   1.71820865659471e-14   1.25351871116098e-14   3.41046326484336e-14   0.00000000000000e+00   0.00000000000000e+00   3.10389857080726e-11   1.00134748213788e-11   1.63585934167790e-11   1.27855076028493e-08   1.62515940061634e-08   2.01019041235267e-07   6.10783727196662e-06   1.60832563234792e-06   6.19174187146788e-06   1.11131627569701e-04   1.68045901126562e-05   7.84239940370845e-06   1.29356629527782e-05   1.11999680549098e-04   7.83197989685494e-05   1.02949004498074e-04   2.91902396152259e-06   1.88403527537067e-05   9.13680007756814e-04   8.19931485488112e-06   1.55264902866082e-12   1.14209940995545e-15   7.57738508556475e-20   5.16062373923816e-19   5.60602087852796e-06   1.40283105140919e-02   8.21984695218682e-38  6.63446176150186e-101  3.99171897137985e-194   0.00000000000000e+00   0.00000000000000e+00   0.00000000000000e+00   0.00000000000000e+00   0.00000000000000e+00   0.00000000000000e+00   0.00000000000000e+00   0.00000000000000e+00   0.00000000000000e+00   0.00000000000000e+00   0.00000000000000e+00   0.00000000000000e+00   0.00000000000000e+00   0.00000000000000e+00   0.00000000000000e+00   0.00000000000000e+00   0.00000000000000e+00   0.00000000000000e+00   0.00000000000000e+00   0.00000000000000e+00   0.00000000000000e+00   0.00000000000000e+00   0.00000000000000e+00   0.00000000000000e+00   0.00000000000000e+00   0.00000000000000e+00   0.00000000000000e+00   0.00000000000000e+00   0.00000000000000e+00   0.00000000000000e+00   0.00000000000000e+00   0.00000000000000e+00   0.00000000000000e+00   0.00000000000000e+00   0.00000000000000e+00   0.00000000000000e+00   0.00000000000000e+00   0.00000000000000e+00   0.00000000000000e+00   0.00000000000000e+00   0.00000000000000e+00   0.00000000000000e+00   0.00000000000000e+00   0.00000000000000e+00   0.00000000000000e+00   0.00000000000000e+00   0.00000000000000e+00   0.00000000000000e+00   0.00000000000000e+00   0.00000000000000e+00   0.00000000000000e+00   0.00000000000000e+00   0.00000000000000e+00   0.00000000000000e+00   0.00000000000000e+00   0.00000000000000e+00   0.00000000000000e+00   0.00000000000000e+00   0.00000000000000e+00   0.00000000000000e+00   0.00000000000000e+00   0.00000000000000e+00   0.00000000000000e+00   0.00000000000000e+00   0.00000000000000e+00   0.00000000000000e+00   0.00000000000000e+00   0.00000000000000e+00   0.00000000000000e+00   0.00000000000000e+00  1.53182378434695e-229   3.98204427083550e-60   9.71253614981149e-07   4.66270362743027e-05   2.53771577863894e-03   3.24532591022473e-11   1.35366719189257e-10   1.52886225662554e-10   3.48868454543573e-11   1.51348104191728e-12   1.17949934011419e-14   2.61394598351359e-17   2.48546922619865e-20   7.45428843323690e-24   9.07611152421821e-28   6.67038946232659e-32   1.62920283942550e-36   5.82225474011769e-41   1.18028975657459e-45   2.01798925748381e-50   9.64150131864587e-55   4.58633802825531e-58   1.38132886549085e-63  4.22783612374397e-147  1.35609156102121e-159   1.06987891513527e-65   4.47109654383746e-67   1.43231713665410e-68   4.52743384914605e-70   1.39949293218378e-71   1.92458197322071e-73   1.57821004119001e-74   7.49876375165373e-76   1.69655305013195e-77   1.23335573978396e-78   2.35335028078294e-80   5.45839383407733e-82   4.00447575353840e-84   6.58737160805183e-86   4.23251166123500e-88   4.65704035567906e-90   1.14626295277553e-92   1.10095104277377e-95   8.94953475877176e-99  3.68330329445188e-102  3.70384035482206e-105  8.55831154219857e-110  2.33699671036308e-113  6.51071173113398e-117  7.91454730901885e-121  6.31313552562476e-125  1.09287944493371e-128  1.28004253471864e-132   1.92082965400898e-62   4.56126838168368e-08   7.95369842168189e-09   3.11166775685377e-14   5.17092339303633e-08   1.63247790449818e-08   1.63944130674226e-09   8.71280924600267e-10   2.01962428753179e-13   2.63229752900291e-14   4.76595926607397e-11   2.12985652986238e-10   4.10671767104793e-11   3.51827603088770e-10   3.51320949489288e-10   4.07818665472033e-10   1.62668537505318e-10   1.86893322441843e-11   5.52769059814658e-12   6.48427138595014e-12   5.37051603519052e-12   3.22864654535630e-12   1.40876792445505e-12   6.37179762764220e-14   2.12953505367891e-11   1.36915642308170e-11   3.17120737201292e-13   4.92687602232432e-12   2.10254459294521e-12   5.36221965707001e-11   4.36569304215917e-12   4.10936381875870e-13   1.68453703011825e-11   5.21802713051954e-12   2.12121565951667e-12   1.22601558266358e-14   9.44001273610552e-14   3.11469391276577e-16   1.00930241760324e-17   3.85941943155518e-19   6.80208328485999e-18   1.65236532641632e-18   9.81948831416309e-22   1.39227977868711e-22   1.67376248572569e-24   5.43897872851164e-24   4.46253180657140e-28   3.71513780920119e-29   1.91274493690094e-29   3.64402876291823e-29   2.06894625322958e-28   1.42396464147957e-30   3.70037714651363e-27   2.16548495126797e-28   6.07552639376587e-27   4.34521555649105e-28   1.38961502014857e-26   1.01154859415276e-25   2.49620270127946e-22   4.52927288660541e-23   1.24615781652970e-24   3.76339434687740e-24   1.59812882459934e-23   2.60934231937419e-22   1.05959198950649e-21   4.53916182043504e-21   2.66318986156691e-20   2.90169670852408e-20   5.04042408541907e-23   6.62512271928215e-24   2.60173891930362e-28   2.95225890486815e-34   6.26764174293047e-44   1.12881132573986e-49   1.47056574729409e-49   5.24082362240161e-38   4.89435814973421e-19   7.00472804969024e-02   1.95016487828331e-03   1.57573060206964e-32   1.07952418735266e-75  9.34513156973623e-119  1.26734835569593e-148  1.21508696327549e-204  3.70946887790522e-273  7.76106164517321e-313   0.00000000000000e+00   0.00000000000000e+00   0.00000000000000e+00   0.00000000000000e+00  4.94065645841247e-323  3.42736107357824e-313  8.56687566072226e-310  1.92446920465432e-304  1.47938069645191e-297  3.09887329373008e-285  4.59506491093804e-273  1.03953089507263e-270  5.19133740266413e-268  9.53158372003785e-260  1.63586961635420e-254  3.17185377135515e-247  6.24021390678080e-247  1.55310766252185e-244  2.45444586690846e-242  5.71892388116153e-240  7.16187046602612e-242  9.42896559051760e-240  1.51570100328119e-234  3.23702067156628e-241  2.21173774187139e-245  1.45495568057306e-242  1.10259367897281e-245  3.55825169269303e-244  6.58437697235455e-253  4.84463036507380e-249  3.26920551186710e-250  1.40207930648710e-249  6.33958299673858e-257  3.11583144638463e-255  1.28110764862739e-265  1.63565893168715e-266  1.55491576953688e-265  9.96541740337605e-275  1.65042987593312e-274  8.32127694268758e-280  2.37984129907733e-282  6.48030316716668e-290  1.06866176062021e-293  2.01535807492011e-291  9.96651101323962e-304  6.03949362027408e-311   0.00000000000000e+00   0.00000000000000e+00   0.00000000000000e+00   0.00000000000000e+00   0.00000000000000e+00   0.00000000000000e+00   0.00000000000000e+00   0.00000000000000e+00   0.00000000000000e+00   0.00000000000000e+00   0.00000000000000e+00   0.00000000000000e+00   0.00000000000000e+00   0.00000000000000e+00   0.00000000000000e+00   0.00000000000000e+00   0.00000000000000e+00   0.00000000000000e+00  3.44688080695663e-300  4.80000031228705e-124   1.45383979748886e-15   5.51568649041471e-01   3.08764672743743e-01   1.19673152686101e-01   8.48308453210816e-02   1.00212608479914e-02   5.99459384827377e-04   4.99767735851717e-05   6.93864195155217e-05   4.47827076129799e-04   5.78262166015770e-04   5.14338198073005e-06   1.12435306006533e-08   1.76297141527230e-11   1.02068330762765e-14   1.04392994207959e-17   6.42497020712899e-21   3.01115958823849e-24   3.95535293720301e-27   2.98766020599689e-30   5.88924488427319e-33   2.93260778315523e-55  4.12513825374252e-124   3.54437593648827e-96   2.77274770067483e-42   4.20447230490807e-44   4.33082896431257e-46   6.08381351894638e-48   8.82869823762574e-50   4.49941286832832e-52   4.36358405770028e-54   2.05746119269731e-56   1.65120895870820e-59   6.22645050429422e-62   5.94352660487466e-65   9.26275299390161e-68   6.46675926305885e-71   8.86917698110304e-74   4.69016914983157e-77   6.36277957770465e-80   3.25256480252777e-83   9.11775858103901e-87   2.58807417991979e-90   4.42560985712308e-94   2.00968124635442e-97  1.81661987171215e-101  2.97744864851614e-105  6.77098945295442e-109  2.88652336725896e-112  2.99895108357318e-116  8.17569873350027e-120  1.14384672178996e-123   1.08630091259382e-24   1.93041742272449e-11   1.79173250461401e-11   5.29469279484628e-13   3.40079264080487e-11   5.65635305358804e-11   4.53018364016673e-11   1.90700470404819e-10   1.15521605729147e-10   5.66613388018476e-11   1.80554443892038e-09   3.39349414383585e-11   4.51695960495149e-11   2.23368585250250e-11   5.26213464537481e-11   4.79037313917927e-11   3.97816661077281e-12   4.13803486986949e-13   7.55874658765945e-14   1.88994575852252e-12   2.18588101718827e-12   3.20440972062837e-11   1.41156264595060e-12   3.01750015797787e-13   2.96902898321795e-13   5.20026255118124e-13   2.49157825801175e-13   2.15574778572191e-13   1.60333260409698e-11   2.38965468815414e-12   1.10837144624559e-12   1.27740233521529e-13   1.27132445834167e-13   2.65453917498573e-16   3.18424185010874e-18   1.77619376448037e-19   1.02192597340142e-20   1.31662158861693e-21   4.94812897350341e-23   6.63954439970774e-25   1.34508509648571e-25   1.19240498765284e-26   8.27770075438332e-29   1.40208611170251e-29   1.26828403698492e-28   1.81143914360488e-26   2.81531459486529e-26   1.35737018092465e-25   1.41337903024042e-22   1.22286795243062e-21   6.01085901183077e-20   4.38614068062560e-20   1.26773626186125e-19   7.15677665922935e-19   9.34698326992706e-17   5.50844616694088e-16   2.12434693544982e-16   4.84248977646445e-16   4.23478235777388e-16   6.01694220135812e-17   1.01136052518117e-16   1.06679416639797e-16   3.39419412824281e-18   5.41742669053941e-21   2.68089248586585e-26   4.17213860627290e-31   6.12263429655601e-33   1.77658445679411e-27   6.04617008293610e-09   9.99556304222432e-01   1.89107393586396e-10   2.25984223447565e-46   1.75953176669043e-93  1.51365833722944e-129  4.59648032121477e-166  3.52844497555544e-217  1.16385877428097e-280  2.59760123320677e-311  3.66802205411655e-311  4.43697234765698e-312  1.68764127935819e-310  1.97852673488188e-300  1.56266928030841e-294  9.21684757183984e-280  3.90945971195609e-274  4.88007286424070e-266  4.54076598612385e-256  1.99260289929949e-245  5.96654847459088e-238  1.34522309257039e-232  3.61099864606825e-227  6.21504484144168e-225  7.93635595841186e-222  1.06474294165717e-218  1.15686376831050e-220  6.41532527190234e-216  6.57988416854208e-212  6.07392869630686e-215  8.46878042884970e-218  1.25187458172574e-217  4.24485431585259e-220  1.78588670512728e-222  8.71347248777763e-214  1.10510464631460e-217  3.50447571830521e-219  3.07254573769870e-219  7.60958501974951e-222  3.08854479513739e-223  6.84416303000437e-224  5.61810804860640e-225  4.40042822654517e-231  2.57041945969907e-225  1.03622506609097e-225  3.30564681517944e-231  6.49655230711669e-236  5.33324566047866e-236  1.03207554362959e-235  1.27399063444396e-235  7.79762184772158e-236  8.54171063901805e-239  1.37305932821388e-239  1.14532955798679e-243  1.33110239682206e-246  2.37310604400385e-249  4.01671244782581e-255  1.74939074272388e-258  1.00457621232571e-261  2.56067866001186e-264  4.57188752286921e-267  3.14896459486634e-272  7.55190599214417e-277  2.06264197824983e-278  4.70066268630988e-277  1.73503876410962e-279  1.49384410354225e-284  2.22563231972294e-286  6.64973125676505e-287  8.86354630139432e-292  1.52991980347742e-293  1.38468749344499e-297  6.52406265884066e-288  4.15251638157954e-284  4.27571964833509e-235   3.76197741194934e-84   1.18328469743840e-03   2.94076610052068e-02   2.33897348339412e-01   7.09681164487641e-01   1.60355584859229e-01   3.09734081788532e-02   3.75231505675243e-03   2.37700434562749e-04   2.34618305105617e-05   4.00867493471998e-06   9.33831900727958e-07   7.10203324300360e-08   1.70628998368173e-11   3.39387962742228e-15   4.01125101092265e-19   1.53165708127915e-22   5.63307577998697e-26   2.38426956755806e-29   4.04831504996063e-32   3.75662921276298e-35   7.08967615346286e-38   2.72720616637013e-81  3.02722376796760e-153   2.56380281530391e-74   2.27923620626276e-47   1.68779090563071e-49   7.43856848653725e-52   3.87614884937971e-54   1.60730063885106e-56   2.10013425191776e-59   4.64475445569575e-62   9.00858375391405e-65   4.31991937071745e-68   5.11217287900945e-71   1.76625389368271e-74   5.11226180984373e-78   7.78233627014024e-82   2.05592206610564e-85   1.96732597954718e-89   4.69945986865695e-93   4.08967233077962e-97  1.62676193127874e-101  7.36761058069614e-106  5.80651549441508e-110  8.62965400338544e-114  9.70055637954559e-119  1.17303974308909e-122  4.73630364265795e-126  5.21351700658175e-130  3.33397548894843e-134  1.54748355777640e-138   1.45181257771613e-88   1.98797307678289e-09   4.14229076284285e-09   4.18969932129259e-09   1.59308378192702e-09   2.27312602512174e-09   1.34588718806211e-09   2.28602842968675e-09   1.22064724844559e-09   3.64809909315571e-10   2.94239027361760e-11   3.08892343888820e-11   1.50677664966203e-10   1.65590367939688e-09   1.61142238790354e-10   4.36634535169393e-11   2.11670206347114e-10   1.91089736409628e-10   2.92126159625972e-10   6.38464018072126e-11   1.93362750885586e-11   1.32706367386568e-11   1.34146282702000e-11   2.52516502007148e-12   3.34916279855790e-12   2.01710082976436e-12   1.20023893132651e-12   9.79042421978273e-14   3.75893833953293e-13   4.09894591669096e-14   2.31534322563644e-14   1.65552320213456e-14   1.47162669204291e-13   6.94015857773115e-14   2.70985736497525e-16   1.04658808103524e-18   2.48180032695099e-20   8.53675587126952e-21   2.84826899430994e-21   5.03072801976748e-23   3.65347630499911e-25   2.28368198335648e-25   7.57451265520276e-26   1.08347028591614e-27   3.19883733589216e-28   7.24764414442359e-30   3.12802544545761e-31   1.28332638070711e-32   4.33490715204871e-32   2.15149166257383e-30   1.30608731391816e-29   6.87644300295915e-30   1.95691942021913e-29   1.62349201363572e-28   5.79509060978000e-27   2.59656787503413e-26   9.95032099359686e-28   1.15800459971148e-28   1.37749255256271e-27   1.08320352353388e-25   8.46527642815490e-27   8.12767940587318e-26   2.90509830742755e-24   4.34088978051006e-24   2.53751806732920e-22   2.32634652626485e-25   4.36173500857938e-26   8.57194367183989e-29   7.18030183594075e-36   2.87899743412022e-46   2.13322156697224e-49   1.52487966059396e-41   9.90898811814384e-21   3.62000979428057e-01   4.57245382699304e-10   3.00368515956188e-54  1.98408952739725e-106  3.52054555521801e-200   0.00000000000000e+00   0.00000000000000e+00   0.00000000000000e+00   0.00000000000000e+00   0.00000000000000e+00   0.00000000000000e+00   0.00000000000000e+00   0.00000000000000e+00   0.00000000000000e+00   0.00000000000000e+00   0.00000000000000e+00   0.00000000000000e+00   0.00000000000000e+00   0.00000000000000e+00   0.00000000000000e+00   0.00000000000000e+00   0.00000000000000e+00   0.00000000000000e+00   0.00000000000000e+00   0.00000000000000e+00   0.00000000000000e+00   0.00000000000000e+00   0.00000000000000e+00   0.00000000000000e+00   0.00000000000000e+00   0.00000000000000e+00   0.00000000000000e+00   0.00000000000000e+00   0.00000000000000e+00   0.00000000000000e+00   0.00000000000000e+00   0.00000000000000e+00   0.00000000000000e+00   0.00000000000000e+00   0.00000000000000e+00   0.00000000000000e+00   0.00000000000000e+00   0.00000000000000e+00   0.00000000000000e+00   0.00000000000000e+00   0.00000000000000e+00   0.00000000000000e+00   0.00000000000000e+00   0.00000000000000e+00   0.00000000000000e+00   0.00000000000000e+00   0.00000000000000e+00   0.00000000000000e+00   0.00000000000000e+00   0.00000000000000e+00   0.00000000000000e+00   0.00000000000000e+00   0.00000000000000e+00   0.00000000000000e+00   0.00000000000000e+00   0.00000000000000e+00   0.00000000000000e+00   0.00000000000000e+00   0.00000000000000e+00   0.00000000000000e+00   0.00000000000000e+00   0.00000000000000e+00   0.00000000000000e+00   0.00000000000000e+00   0.00000000000000e+00   0.00000000000000e+00   0.00000000000000e+00   0.00000000000000e+00   0.00000000000000e+00   0.00000000000000e+00  2.66362144810182e-199   5.83758478286967e-55   8.28808551740295e-03   8.93771758084738e-02   3.47599962754908e-01   2.74510597989258e-05   9.34602863525912e-07   1.02264893946423e-08   2.38538124494621e-11   2.43282675024965e-14   7.98797224399593e-18   8.54107209064385e-22   1.42111137879343e-25   1.21690469185290e-29   8.28439167848300e-34   6.00406659704801e-38   2.54737163743187e-42   2.62974005495771e-46   2.63027359137301e-50   3.28876564703406e-54   1.49719891514267e-57   4.82903204939560e-61   4.21332511470882e-64  9.32972217331896e-158  1.37890708779203e-141   1.16828542905205e-66   2.38541436017111e-67   3.65592459984522e-68   4.98906348176450e-69   5.32016506528096e-70   1.32999922216309e-71   1.35252683914928e-72   8.71706591997240e-74   1.24908073343859e-75   5.42188207401902e-77   5.41006910682418e-79   1.26827989581514e-80   3.52201641386637e-83   1.85195883200070e-85   2.96450783228909e-88   4.26676299139650e-91   1.63552452281221e-94   7.23036033883369e-98  3.87993722938857e-101  8.32065267316667e-105  4.02692576366618e-108  1.07351313916269e-112  1.09569682609452e-116  1.77210208937054e-120  4.03493556451304e-124  1.94047710191489e-128  1.28356713076483e-132  6.69716424978275e-137   1.82108283154568e-59   2.59442269806967e-08   8.96999420680541e-09   1.29178743395184e-12   3.12856809029169e-09   5.95430012039921e-10   7.06324733973176e-11   6.36417253488628e-11   2.42007133169662e-15   7.56665201552228e-17   2.71878495504754e-11   3.98589856000792e-12   1.40349249919605e-11   1.94274326275449e-10   1.82630556894556e-11   2.61945497863927e-10   7.53395161791052e-12   8.24059362257042e-12   6.37767460250622e-12   2.84151271294386e-12   7.58696378329307e-13   5.43446502183327e-13   4.89005104638755e-14   2.26183881384650e-14   1.15879105699057e-13   2.89685186183472e-13   6.89868731654290e-14   9.71210254926810e-15   2.95754108736192e-15   5.00230480944500e-14   2.89529712951122e-15   5.28477575053572e-14   1.30833574140578e-14   8.27583025454174e-17   1.14691385168980e-19   2.50528969252954e-21   8.81984209692321e-22   1.68038038444077e-20   9.96200314786866e-24   2.97300480701597e-27   4.92889653560584e-26   2.47967457009061e-30   5.57713767226357e-30   7.08492427579759e-33   6.66780133370142e-34   7.34001117625667e-34   1.14339239695164e-34   4.72961872868879e-34   1.59832021362586e-34   2.69246733221670e-31   8.31998660576445e-31   5.48172927953030e-32   2.65680530164637e-31   4.07603451066994e-31   8.90279618140188e-32   5.56531753070331e-33   7.17663904148270e-33   6.15440992150333e-32   1.01321915821946e-28   1.63666516599340e-29   9.49753117657473e-27   7.63057450812914e-28   1.00599005120902e-24   2.95049061540580e-22   8.19661868651494e-24   5.12844357019776e-22   5.98772066437330e-21   1.64466235115089e-20   8.87964482885663e-24   1.74160122121925e-27   2.05728577843456e-36   6.36110065563985e-46   1.09126341224839e-48   8.14333629089150e-31   1.10202988897160e-03   5.87893301099692e-07   1.26937787150636e-51  4.10546196179740e-102  3.71036194104101e-212   0.00000000000000e+00   0.00000000000000e+00   0.00000000000000e+00   0.00000000000000e+00   0.00000000000000e+00   0.00000000000000e+00   0.00000000000000e+00   0.00000000000000e+00   0.00000000000000e+00   0.00000000000000e+00   0.00000000000000e+00   0.00000000000000e+00   0.00000000000000e+00   0.00000000000000e+00   0.00000000000000e+00   0.00000000000000e+00   0.00000000000000e+00   0.00000000000000e+00   0.00000000000000e+00   0.00000000000000e+00   0.00000000000000e+00   0.00000000000000e+00   0.00000000000000e+00   0.00000000000000e+00   0.00000000000000e+00   0.00000000000000e+00   0.00000000000000e+00   0.00000000000000e+00   0.00000000000000e+00   0.00000000000000e+00   0.00000000000000e+00   0.00000000000000e+00   0.00000000000000e+00   0.00000000000000e+00   0.00000000000000e+00   0.00000000000000e+00   0.00000000000000e+00   0.00000000000000e+00   0.00000000000000e+00   0.00000000000000e+00   0.00000000000000e+00   0.00000000000000e+00   0.00000000000000e+00   0.00000000000000e+00   0.00000000000000e+00   0.00000000000000e+00   0.00000000000000e+00   0.00000000000000e+00   0.00000000000000e+00   0.00000000000000e+00   0.00000000000000e+00   0.00000000000000e+00   0.00000000000000e+00   0.00000000000000e+00   0.00000000000000e+00   0.00000000000000e+00   0.00000000000000e+00   0.00000000000000e+00   0.00000000000000e+00   0.00000000000000e+00   0.00000000000000e+00   0.00000000000000e+00   0.00000000000000e+00   0.00000000000000e+00   0.00000000000000e+00   0.00000000000000e+00   0.00000000000000e+00   0.00000000000000e+00   0.00000000000000e+00  2.54933920728916e-318  2.96921982814836e-110   1.96837279008229e-14   2.43198544232732e-12   6.52506921375069e-10   6.16015280692874e-07   8.11324783575280e-05   5.19157098262367e-03   8.58644771470950e-02   3.87539461046191e-01   5.00411294624703e-01   1.72135135044350e-01   3.77611130573174e-02   4.70842246750288e-03   8.20274043941435e-04   1.68084702554997e-04   1.65445173474178e-05   5.39643239007223e-06   1.63532107877765e-06   1.29677416130027e-09   1.14242394198961e-12   5.36110549620998e-16   5.82629099415909e-19   3.08239400050901e-60  1.81251053473027e-167   1.34678082161886e-60   8.06610437092454e-30   6.76518360805624e-32   2.18865840043297e-34   5.92468895781232e-37   3.59645435859431e-39   1.45040268439096e-41   1.23563480522141e-43   5.33544992045901e-46   2.11357754547590e-48   2.37438004394588e-50
   0.00000000000000e+00   0.00000000000000e+00   0.00000000000000e+00   0.00000000000000e+00   0.00000000000000e+00   0.00000000000000e+00   0.00000000000000e+00   0.00000000000000e+00   0.00000000000000e+00   0.00000000000000e+00   0.00000000000000e+00   0.00000000000000e+00   0.00000000000000e+00   0.00000000000000e+00   0.00000000000000e+00   0.00000000000000e+00   0.00000000000000e+00   0.00000000000000e+00   0.00000000000000e+00   0.00000000000000e+00   0.00000000000000e+00   0.00000000000000e+00   0.00000000000000e+00   0.00000000000000e+00   0.00000000000000e+00   0.00000000000000e+00   0.00000000000000e+00   0.00000000000000e+00   0.00000000000000e+00   0.00000000000000e+00   0.00000000000000e+00   0.00000000000000e+00   0.00000000000000e+00   0.00000000000000e+00   0.00000000000000e+00   0.00000000000000e+00   0.00000000000000e+00   0.00000000000000e+00   0.00000000000000e+00   0.00000000000000e+00   0.00000000000000e+00   0.00000000000000e+00   0.00000000000000e+00   0.00000000000000e+00   0.00000000000000e+00   0.00000000000000e+00   0.00000000000000e+00   0.00000000000000e+00   5.49063844411952e-13   1.94231566908374e-13   0.00000000000000e+00   2.78023899574247e-15   1.64699078313750e-14   1.25699535125289e-14   4.29594909679861e-14   0.00000000000000e+00   0.00000000000000e+00   9.32708285243019e-11   2.09339989522999e-11   4.63126357173385e-11   1.00609392698839e-07   2.63419824026639e-07   1.37444680604612e-06   4.40387833414086e-05   2.69824792588417e-05   8.38088015624025e-05   2.58157980055580e-03   6.89945367597035e-04   1.81704571418774e-03   2.31517861996107e-03   4.73069582259181e-03   4.97560282767646e-03   2.89206998545471e-02   1.81303365589883e-02   4.02998007046809e-03   6.43830988897327e-02   2.85002059188934e-01   1.01764451560753e-02   1.36229675592268e-04   4.38696833205018e-06   2.50399840378753e-08   3.91174237532562e-07   4.29114909799300e-01   1.41387236487877e-10   1.13703755844803e-63  7.74349301248015e-142  6.91626893416120e-251   0.00000000000000e+00   0.00000000000000e+00   0.00000000000000e+00   0.00000000000000e+00   0.00000000000000e+00   0.00000000000000e+00   0.00000000000000e+00   0.00000000000000e+00   0.00000000000000e+00   0.00000000000000e+00   0.00000000000000e+00   0.00000000000000e+00   0.00000000000000e+00   0.00000000000000e+00   0.00000000000000e+00   0.00000000000000e+00   0.00000000000000e+00   0.00000000000000e+00   0.00000000000000e+00   0.00000000000000e+00   0.00000000000000e+00   0.00000000000000e+00   0.00000000000000e+00   0.00000000000000e+00   0.00000000000000e+00   0.00000000000000e+00   0.00000000000000e+00   0.00000000000000e+00   0.00000000000000e+00   0.00000000000000e+00   0.00000000000000e+00   0.00000000000000e+00   0.00000000000000e+00   0.00000000000000e+00   0.00000000000000e+00   0.00000000000000e+00   0.00000000000000e+00   0.00000000000000e+00   0.00000000000000e+00   0.00000000000000e+00   0.00000000000000e+00   0.00000000000000e+00   0.00000000000000e+00   0.00000000000000e+00   0.00000000000000e+00   0.00000000000000e+00   0.00000000000000e+00   0.00000000000000e+00   0.00000000000000e+00   0.00000000000000e+00   0.00000000000000e+00   0.00000000000000e+00   0.00000000000000e+00   0.00000000000000e+00   0.00000000000000e+00   0.00000000000000e+00   0.00000000000000e+00   0.00000000000000e+00   0.00000000000000e+00   0.00000000000000e+00   0.00000000000000e+00   0.00000000000000e+00   0.00000000000000e+00   0.00000000000000e+00   0.00000000000000e+00   0.00000000000000e+00   0.00000000000000e+00   0.00000000000000e+00   0.00000000000000e+00  6.35432573023641e-228   5.87623001644267e-59   4.53144727426918e-06   1.09507575521170e-04   3.32328135286104e-03   1.08316819919071e-01   1.07107563383871e-10   1.53532709911575e-10   3.74047378431364e-11   2.10672104900561e-12   2.11001202056238e-14   3.79147447855210e-17   3.21827579225004e-20   9.02055343051543e-24   1.02744977177118e-27   6.83580308755751e-32   1.52205011443174e-36   5.24358593027815e-41   1.02649182607340e-45   1.66771153086427e-50   8.76845260767602e-55   4.40221322814721e-58   1.22777745701961e-63  3.58771827866349e-147  1.30728183266753e-159   1.30375699251556e-65   4.43798222009679e-67   1.35086139713986e-68   5.77874673660296e-70   3.36925751030855e-71   5.23119463516011e-73   2.11453861901034e-74   1.32057513696463e-75   3.99108389349439e-77   4.82453451845863e-78   1.02551711461038e-79   3.26891403763476e-81   3.43284055984625e-83   6.27468911975222e-85   2.70659982252308e-87   2.51496021883136e-89   2.61323047321466e-91   5.45979528349788e-94   2.74633486918211e-97  8.65204065815909e-101  1.84824602354528e-103  3.66631178646790e-107  1.23925703380516e-111  2.45876204374257e-115  9.53482410906069e-119  5.13193406900162e-123  5.94843732293433e-127  4.92997961286354e-131   1.83094028242052e-62   4.04997298530422e-08   6.83786984739562e-09   3.03840182017970e-14   4.94613145472341e-08   1.61340137522506e-08   2.28293828320416e-09   9.78372139989745e-10   1.90058006364137e-13   2.06209529947324e-14   9.77785851040880e-11   4.65034736364646e-10   5.43250602423411e-11   8.73343676637119e-10   7.54644650182500e-10   1.04882404547719e-09   5.25674870852269e-10   6.44610720301332e-11   4.26728122273825e-11   5.20162533761927e-11   3.44112570088756e-11   2.64289672538905e-11   2.51783252299440e-11   7.43453162510579e-13   9.61949747812018e-10   7.80723840644379e-10   4.27870486390441e-11   1.35263924917675e-10   6.61522214285343e-11   2.15487457478697e-09   4.18775220137792e-10   3.66644188538954e-11   4.34432253469255e-10   9.08153598545701e-11   4.38073094450868e-11   5.19264482817463e-13   2.76545527974361e-12   5.59773157854407e-15   5.95902604490361e-16   4.40741825571177e-17   1.56208447093962e-16   1.20104329349727e-17   5.71443409867857e-20   3.21143648816908e-20   5.39490552585826e-23   1.00537598536230e-21   2.83935214216394e-24   1.57530614070856e-24   6.94518389449366e-26   4.59785841709008e-26   1.50757531252510e-23   1.31208000755869e-24   1.14480834497689e-21   4.06831559422719e-23   1.20418215028991e-20   3.06269761060485e-22   1.41219906056483e-20   1.55175051547906e-19   1.55341418501775e-16   6.48500132263562e-17   6.14955375926083e-19   1.83749130616776e-17   9.83845831435290e-16   2.24109157452868e-14   1.16949303192911e-13   1.23148001353136e-13   4.88096357378679e-13   5.35407651703764e-12   1.25540489308597e-12   4.26878948347106e-12   9.14015645266371e-13   1.66434315035327e-15   2.75007757790721e-18   7.98768345216746e-24   8.57716223992614e-28   3.87477369615367e-26   8.59299785058527e-20   1.82504881034633e-06   9.29792508882626e-01   5.09696775618877e-15   5.18282510188906e-51  3.40633366023196e-120  1.48902645289175e-169  8.01227787132202e-206  5.37913235907105e-236  4.96157096296449e-283  2.32338680571949e-311  4.94065645841247e-324  5.64647864006127e-319  3.49744908808501e-307  2.70585763548772e-304  6.92886610142619e-295  8.83082239672741e-292  1.44526298979922e-285  6.00057602198981e-279  2.18682069803355e-268  2.02183327757614e-256  3.28206720807522e-253  2.72205537519026e-251  4.57624146544242e-243  6.52339072687821e-238  8.27128387411583e-230  1.57671972373072e-227  7.01604073841573e-226  9.21317782044977e-226  6.17107625696521e-220  7.97947823234140e-224  6.11254731276477e-225  1.33681068972509e-217  5.85609331198570e-223  3.61458338977658e-227  9.85799617890312e-225  1.59272039040139e-228  1.59792134377811e-224  1.50766075436643e-233  4.12806551224317e-232  1.11712821649156e-233  2.14708201154808e-232  7.48753813534830e-237  2.42716983213188e-236  2.06583875810240e-245  4.46024623158694e-248  2.63292231168179e-247  3.26866542493270e-256  5.58980120590764e-256  1.96463185002396e-257  6.16146902552147e-260  1.66378857219207e-267  5.03874810835503e-273  2.13711097189416e-271  6.74488648598522e-280  2.43758177091560e-287  3.80024933799358e-300  7.20977044992909e-299  2.04294237531189e-306  9.80310232508826e-319   0.00000000000000e+00   0.00000000000000e+00   0.00000000000000e+00   0.00000000000000e+00   0.00000000000000e+00   0.00000000000000e+00   0.00000000000000e+00   0.00000000000000e+00   0.00000000000000e+00   0.00000000000000e+00   0.00000000000000e+00   0.00000000000000e+00   0.00000000000000e+00   0.00000000000000e+00  1.55960476416575e-299  1.14126715005366e-123   1.72192223460008e-15   5.61309928919961e-01   3.25551574415787e-01   9.97034824731067e-02   2.22630469727185e-02   1.42362965143390e-03   7.54757064579069e-05   1.65738609296176e-06   4.42722238445730e-07   9.60795599073540e-07   4.62189721402347e-06   3.04843413257081e-06   1.43769950180458e-08   2.03028991980062e-11   1.09008227135879e-14   1.03331094244481e-17   6.36568434080461e-21   2.98118256275709e-24   4.00173625065100e-27   3.29996129072485e-30   6.78867248804150e-33   3.17450035358444e-55  4.33759861558308e-124   5.82019642020536e-96   4.42323188949738e-42   6.26247888853245e-44   6.01075372403941e-46   7.74814914475618e-48   1.86899172953774e-49   1.19076952868805e-51   1.46870367300647e-53   7.55674122166603e-56   1.85410282679311e-58   6.47351768614053e-61   6.83312428488461e-64   1.13343494418948e-66   8.24102185280540e-70   1.51147133587455e-72   5.99423388631322e-76   4.46181400726958e-79   5.88022674515527e-82   3.12312123547539e-85   4.54026052549421e-89   5.46290341674510e-93   4.87889009557194e-96  4.30830907523760e-100  6.84305086217594e-104  7.32296666801661e-108  2.15881912814740e-111  4.61043400067425e-115  5.99154909862846e-119  8.45970342583348e-123   1.11334090475662e-24   2.07143582807316e-11   1.71290836964465e-11   5.26802784509516e-13   3.15874104502108e-11   5.67419110135278e-11   4.50321393688013e-11   2.08334016237939e-10   1.10301480736199e-10   5.46619640583447e-11   2.30700428403122e-09   3.94616807079888e-11   6.54629448659918e-11   3.44903555928529e-11   9.25179249431501e-11   7.58918476507299e-11   6.29687113790527e-12   1.22933969545471e-12   3.79577765251302e-13   7.86263481550529e-12   5.11777351820978e-12   1.31484650210348e-10   2.24065184012395e-11   4.41337793072999e-12   2.11814930170833e-12   3.22272433496233e-12   1.17134929493346e-11   4.60144997510711e-12   6.00965659786500e-11   1.06060610556621e-11   4.34307399937208e-12   4.75064643017934e-13   2.51817774338921e-13   3.03963686906040e-16   3.69795547255968e-18   2.23956500808001e-18   3.21906076031176e-20   6.81166408951226e-21   2.44028522219640e-22   2.98162724322880e-23   4.83945205654701e-24   2.57717605218097e-24   6.95869591615100e-26   2.20210233965029e-25   5.65768074346385e-25   6.33596837296215e-23   3.18404173491250e-21   1.67796620509395e-20   8.16729810446462e-17   3.21063277281245e-18   7.44479464059079e-16   1.95643226009850e-14   9.45605707384854e-14   3.75063941833520e-14   2.11838582846537e-12   3.24555999864777e-11   2.32816067846328e-10   4.86364015865756e-11   6.88403115496693e-11   2.50406953866378e-10   1.04957486412960e-10   1.26137483635504e-10   7.50380724266260e-11   7.59624562961504e-11   1.78816155167809e-12   5.59860690588862e-15   5.83653383146751e-17   5.81241454651245e-19   1.72222364081496e-14   2.97308760149390e-02   3.13013705471912e-04   1.92158133272952e-26   3.16233696066371e-74  6.71678783927934e-132  7.49478235568012e-186  3.68707281404094e-217  7.84484395073641e-241  1.54172441809618e-283  1.89657486765056e-300  8.10393994606965e-297  1.13551602107225e-291  2.72001302653576e-282  1.14293776244000e-276  1.41382078245939e-266  3.64997219681515e-259  1.46996666350003e-251  1.14117868415908e-242  2.98636840218892e-232  2.11862508841070e-225  2.27269047637783e-218  1.69713912045576e-213  3.50976874348704e-211  1.42015187312957e-208  1.08757276014212e-204  2.56988737724537e-207  1.86079066427936e-203  1.25175800734010e-199  5.41125596169528e-199  1.04119381984227e-203  8.28590167865551e-205  2.69090932694927e-208  7.20297401533412e-209  1.12345616457859e-199  7.02072326611861e-205  7.63796084910543e-207  8.48992409291020e-206  1.04422207999222e-208  1.44490766505075e-209  1.92592121084081e-212  1.16080120837187e-212  2.40494066055792e-218  1.19116266082488e-213  1.15989623412541e-214  6.09579210225615e-218  1.68650561410015e-220  6.57030929307556e-223  1.45725127166357e-223  7.10239226797781e-223  1.28500954785955e-220  1.88899222667208e-223  4.26725299257988e-226  1.86235481434495e-228  1.09086526393143e-228  4.69557795476184e-231  8.42613295399750e-237  1.68396312300494e-239  1.00503716333917e-240  3.95643632387581e-242  1.98521113456262e-243  2.23722412303468e-247  3.09927202676907e-250  3.59729849534183e-251  1.82523824723783e-251  4.85893277954113e-253  8.76203379412426e-256  2.36889862902585e-257  1.59174923072729e-259  2.64399691911174e-265  3.86723726762829e-265  2.70295230995712e-271  5.34938213415067e-267  3.64473652611101e-266  9.58268123947674e-235   6.26930353424739e-84   1.09696886898657e-03   2.40786554109086e-02   2.23349491577132e-01   6.46248310846867e-01   1.02447394333739e-01   6.90206620591771e-03   3.38470031279269e-04   1.32135106101434e-05   2.87580194595740e-07   1.10475194833215e-08   1.60517775005889e-09   2.28297496445515e-10   1.30952878208935e-11   3.59533663191599e-15   4.42848097352616e-19   1.50664522917667e-22   5.37734026688878e-26   2.12835155107978e-29   3.22592350540826e-32   3.84433237511510e-35   8.82717971074587e-38   2.93742379276541e-81  2.78761353785893e-153   2.58574741309987e-74   4.71149210020313e-47   2.84916341700236e-49   1.16492351073657e-51   5.54905379945839e-54   4.29326139329438e-56   7.42309535966454e-59   2.21195515847029e-61   2.43098688801567e-64   2.55550742727401e-67   5.39481203269911e-70   1.59578682862583e-73   8.62785936476277e-77   1.05361160119093e-80   3.94838170431457e-84   2.87347317195688e-88   3.77512997761666e-92   9.02079104974413e-96  7.21806084056080e-100  1.68243583581386e-104  3.32587632247364e-109  1.47724779056211e-112  7.39434728249132e-117  2.95998350307512e-121  8.26036113979178e-125  1.96528009931650e-128  2.69646134928060e-132  8.19462391002403e-137   1.40526643129504e-88   1.98429152002423e-09   4.05227837265880e-09   4.01951754674669e-09   1.53099967548304e-09   2.33596684404267e-09   1.28640194047830e-09   2.25029177834108e-09   1.18969117963566e-09   3.93573145581044e-10   3.61182371633965e-11   4.07621842974785e-11   2.05624868424580e-10   1.78586714092786e-09   2.78856693017981e-10   1.15991285074353e-10   4.52248252712127e-10   2.96832942370210e-10   6.21588342036202e-10   2.38608858008292e-10   5.54302741034668e-11   3.57163396049979e-11   6.00192939026832e-11   2.25583453757260e-11   3.92201122365789e-11   1.15106566133504e-11   4.89123022445354e-12   2.34227353120100e-12   3.83649254834818e-12   2.28298908704780e-13   1.35424759717330e-13   1.46650899232557e-13   6.44544052348212e-13   2.69434577688768e-14   4.42795659054639e-16   3.86999095441520e-18   1.29525963762757e-19   4.69045103374769e-20   1.29571012095552e-21   7.19437138303863e-23   3.90693080674704e-24   8.67337190851360e-25   1.78937086094124e-25   7.00950579318442e-27   3.37793014579577e-25   2.74033163336525e-27   1.05520399816778e-28   4.71614419574650e-30   7.23979849396674e-29   6.84539772396194e-27   8.26128396257839e-26   1.20416018307719e-25   1.68257152792341e-24   1.62678302540037e-23   1.41927348723376e-22   1.04034814241423e-21   3.41545200487087e-22   7.02708224675938e-23   8.28907137422926e-23   4.45666378898028e-21   8.39108846350265e-21   2.80209023610060e-20   5.72019698894801e-19   2.97729495495704e-18   3.33176410753975e-16   4.49338878584861e-18   2.92522965474188e-17   1.03471324822454e-15   3.16715860306046e-17   1.88245341894678e-22   1.87325473106522e-27   1.87258933619342e-28   2.10250164694182e-22   1.19866663550152e-07   6.37606170071924e-01   7.02081195243703e-24   5.14309895206683e-85  9.23405331844772e-151  1.15501873547655e-264   0.00000000000000e+00   0.00000000000000e+00   0.00000000000000e+00   0.00000000000000e+00   0.00000000000000e+00   0.00000000000000e+00   0.00000000000000e+00   0.00000000000000e+00   0.00000000000000e+00   0.00000000000000e+00   0.00000000000000e+00   0.00000000000000e+00   0.00000000000000e+00   0.00000000000000e+00   0.00000000000000e+00   0.00000000000000e+00   0.00000000000000e+00   0.00000000000000e+00   0.00000000000000e+00   0.00000000000000e+00   0.00000000000000e+00   0.00000000000000e+00   0.00000000000000e+00   0.00000000000000e+00   0.00000000000000e+00   0.00000000000000e+00   0.00000000000000e+00   0.00000000000000e+00   0.00000000000000e+00   0.00000000000000e+00   0.00000000000000e+00   0.00000000000000e+00   0.00000000000000e+00   0.00000000000000e+00   0.00000000000000e+00   0.00000000000000e+00   0.00000000000000e+00   0.00000000000000e+00   0.00000000000000e+00   0.00000000000000e+00   0.00000000000000e+00   0.00000000000000e+00   0.00000000000000e+00   0.00000000000000e+00   0.00000000000000e+00   0.00000000000000e+00   0.00000000000000e+00   0.00000000000000e+00   0.00000000000000e+00   0.00000000000000e+00   0.00000000000000e+00   0.00000000000000e+00   0.00000000000000e+00   0.00000000000000e+00   0.00000000000000e+00   0.00000000000000e+00   0.00000000000000e+00   0.00000000000000e+00   0.00000000000000e+00   0.00000000000000e+00   0.00000000000000e+00   0.00000000000000e+00   0.00000000000000e+00   0.00000000000000e+00   0.00000000000000e+00   0.00000000000000e+00   0.00000000000000e+00   0.00000000000000e+00   0.00000000000000e+00  6.73885761373671e-199   7.73323422536497e-55   7.22700889328841e-03   8.28570761677825e-02   3.39688416859093e-01   5.18668901576385e-01   2.62912146256112e-06   3.14397034590202e-08   8.69987617430394e-11   6.63327476288046e-14   2.27439236508255e-17   2.67704052131769e-21   2.12577276867465e-25   1.78965155517802e-29   1.07451896184060e-33   6.95547011054927e-38   2.56065931816879e-42   2.52359454860911e-46   2.27443494843830e-50   2.68136922039281e-54   1.32501533072925e-57   4.36383621725556e-61   3.97396131098701e-64  8.17373128731969e-158  1.66696711260125e-141   2.13698709726996e-66   3.57546756684826e-67   4.37913342184809e-68   7.92429810379940e-69   1.70458374225698e-69   7.37163188085941e-71   4.44094000505679e-72   2.54845119053245e-73   8.95970311996929e-75   5.71210414928952e-76   6.55578913111009e-78   9.54047650217003e-80   1.00295101792328e-81   5.96706865805197e-84   7.68079940592910e-87   1.69848464209410e-89   2.00612707341474e-92   7.16406636904868e-96   1.85084930756447e-99  4.21353329285174e-103  4.79298440738611e-106  4.63406921949895e-110  2.07686854622320e-114  1.42773526893584e-118  3.30864217229922e-122  3.85488891125363e-126  2.53383839415948e-130  8.28959680550068e-135   1.74261936691461e-59   2.42089293794557e-08   8.34663031029004e-09   1.27892068660047e-12   3.10469857836369e-09   6.82360039137432e-10   7.25467582395320e-11   6.71378359248002e-11   2.49716216454056e-15   7.51659702745986e-17   5.44220661451858e-11   7.78872825040291e-12   1.66090449420461e-11   2.88131923000090e-10   3.86965998959983e-11   4.78043096809512e-10   1.85275875232329e-11   2.36313897264529e-11   3.15805575956936e-11   8.54503320382077e-12   2.16265097099627e-12   4.21062806252061e-12   8.40556876188418e-13   1.93334642139354e-13   4.04997708049484e-13   1.87642657937785e-12   2.02821760841317e-12   3.87707649991516e-13   4.22153201117635e-14   3.30608397728064e-13   1.74429685280563e-14   3.55791686594175e-13   8.67616450918304e-15   7.88593112031636e-17   3.73913460351591e-19   1.41211292918985e-20   1.42836353012284e-21   5.47530853389139e-21   5.37729912764908e-23   2.10443383348795e-26   7.68283344157182e-26   3.44305149448825e-30   1.89636225604404e-28   5.75551966053684e-30   3.09651916735244e-31   6.68199648425730e-32   4.12704455815669e-32   5.54703384836719e-30   1.09711058754343e-30   4.67234939476733e-28   1.68111228874992e-27   3.33315009821265e-27   1.12706494988685e-25   5.18759068304301e-26   4.50379186242861e-26   5.17512605192004e-27   7.88159866400515e-27   3.49293698953749e-26   3.65983863629305e-23   1.51095731872343e-22   3.03279452802046e-20   2.17839530046174e-21   1.87821137224035e-19   4.04821743740433e-16   1.61010655664796e-16   1.52929711636221e-16   8.37352748493398e-16   6.84385333540670e-13   4.69029874861262e-14   4.77438831412858e-14   4.60024305682214e-19   5.78795661897586e-22   4.47185115865517e-27   2.83551510417756e-28   2.34181046094425e-15   9.98888037793017e-01   8.79451893647433e-23   2.97604793298459e-76  2.15798861653454e-150  4.98313123181370e-278   0.00000000000000e+00   0.00000000000000e+00   0.00000000000000e+00   0.00000000000000e+00   0.00000000000000e+00   0.00000000000000e+00   0.00000000000000e+00   0.00000000000000e+00   0.00000000000000e+00   0.00000000000000e+00   0.00000000000000e+00   0.00000000000000e+00   0.00000000000000e+00   0.00000000000000e+00   0.00000000000000e+00   0.00000000000000e+00   0.00000000000000e+00   0.00000000000000e+00   0.00000000000000e+00   0.00000000000000e+00   0.00000000000000e+00   0.00000000000000e+00   0.00000000000000e+00   0.00000000000000e+00   0.00000000000000e+00   0.00000000000000e+00   0.00000000000000e+00   0.00000000000000e+00   0.00000000000000e+00   0.00000000000000e+00   0.00000000000000e+00   0.00000000000000e+00   0.00000000000000e+00   0.00000000000000e+00   0.00000000000000e+00   0.00000000000000e+00   0.00000000000000e+00   0.00000000000000e+00   0.00000000000000e+00   0.00000000000000e+00   0.00000000000000e+00   0.00000000000000e+00   0.00000000000000e+00   0.00000000000000e+00   0.00000000000000e+00   0.00000000000000e+00   0.00000000000000e+00   0.00000000000000e+00   0.00000000000000e+00   0.00000000000000e+00   0.00000000000000e+00   0.00000000000000e+00   0.00000000000000e+00   0.00000000000000e+00   0.00000000000000e+00   0.00000000000000e+00   0.00000000000000e+00   0.00000000000000e+00   0.00000000000000e+00   0.00000000000000e+00   0.00000000000000e+00   0.00000000000000e+00   0.00000000000000e+00   0.00000000000000e+00   0.00000000000000e+00   0.00000000000000e+00   0.00000000000000e+00   0.00000000000000e+00  5.77766739693585e-316  2.19013154985197e-108   8.35089654564115e-13   4.31164994147601e-11   4.42892796358277e-09   9.07739359685105e-07   8.93462228988290e-05   5.05843239906871e-03   8.43016800544330e-02   3.79781618707155e-01   4.29100198704082e-01   1.18444133922987e-01   1.55372601689441e-02   9.39209900334795e-04   4.05840556686377e-05   3.45562095817912e-06   1.88031811538349e-07   2.20078743807558e-08   3.57084477568804e-09   6.87904419797242e-10   1.12187540490553e-12   4.51746165240157e-16   4.91480237544654e-19   2.28919271904081e-60  1.85876411590974e-167   1.74877499849178e-60   6.84303484831522e-30   5.46879851067605e-32   3.36461896516879e-34   1.35868211199202e-36   6.58191477017417e-39   2.45420021003619e-41   3.36482354838531e-43   1.96820315533887e-45   5.66580418744632e-48   1.38036200455753e-49   5.23296646761299e-52
   0.00000000000000e+00   0.00000000000000e+00   0.00000000000000e+00   0.00000000000000e+00   0.00000000000000e+00   0.00000000000000e+00   0.00000000000000e+00   0.00000000000000e+00   0.00000000000000e+00   0.00000000000000e+00   0.00000000000000e+00   0.00000000000000e+00   0.00000000000000e+00   0.00000000000000e+00   0.00000000000000e+00   0.00000000000000e+00   0.00000000000000e+00   0.00000000000000e+00   0.00000000000000e+00   0.00000000000000e+00   0.00000000000000e+00   0.00000000000000e+00   0.00000000000000e+00   0.00000000000000e+00   0.00000000000000e+00   0.00000000000000e+00   0.00000000000000e+00   0.00000000000000e+00   0.00000000000000e+00   0.00000000000000e+00   0.00000000000000e+00   0.00000000000000e+00   0.00000000000000e+00   0.00000000000000e+00   0.00000000000000e+00   0.00000000000000e+00   0.00000000000000e+00   0.00000000000000e+00   0.00000000000000e+00   0.00000000000000e+00   0.00000000000000e+00   0.00000000000000e+00   0.00000000000000e+00   0.00000000000000e+00   0.00000000000000e+00   0.00000000000000e+00   0.00000000000000e+00   4.29103474783590e-10   1.52895502835663e-11   0.00000000000000e+00   3.59814425647670e-13   5.06229842029393e-13   1.93189252278805e-13   3.71390492080654e-13   0.00000000000000e+00   0.00000000000000e+00   9.71483274903921e-11   3.19404475255243e-11   7.18897446585989e-11   7.18726902429934e-08   1.45359591431697e-07   5.27755528399269e-07   3.39202501305853e-05   1.88926649996814e-05   3.89045834067346e-05   1.67958724999347e-03   4.83788381577198e-04   1.39926089183557e-03   2.42229490501211e-03   3.65544614108103e-03   2.91429737586874e-03   1.48432936781343e-02   1.77159965106416e-02   8.84618380084791e-03   3.91003978423089e-02   1.07529575546487e-01   5.21529550628147e-02   1.02534668397122e-01   1.82620579047570e-02   4.09079130814853e-03   1.49966157671336e-03   2.29438043618543e-02   5.70814073355192e-01   3.35611024849010e-21   4.35834283684443e-82  3.83406504472536e-169  1.37772653551253e-281   0.00000000000000e+00   0.00000000000000e+00   0.00000000000000e+00   0.00000000000000e+00   0.00000000000000e+00   0.00000000000000e+00   0.00000000000000e+00   0.00000000000000e+00   0.00000000000000e+00   0.00000000000000e+00   0.00000000000000e+00   0.00000000000000e+00   0.00000000000000e+00   0.00000000000000e+00   0.00000000000000e+00   0.00000000000000e+00   0.00000000000000e+00   0.00000000000000e+00   0.00000000000000e+00   0.00000000000000e+00   0.00000000000000e+00   0.00000000000000e+00   0.00000000000000e+00   0.00000000000000e+00   0.00000000000000e+00   0.00000000000000e+00   0.00000000000000e+00   0.00000000000000e+00   0.00000000000000e+00   0.00000000000000e+00   0.00000000000000e+00   0.00000000000000e+00   0.00000000000000e+00   0.00000000000000e+00   0.00000000000000e+00   0.00000000000000e+00   0.00000000000000e+00   0.00000000000000e+00   0.00000000000000e+00   0.00000000000000e+00   0.00000000000000e+00   0.00000000000000e+00   0.00000000000000e+00   0.00000000000000e+00   0.00000000000000e+00   0.00000000000000e+00   0.00000000000000e+00   0.00000000000000e+00   0.00000000000000e+00   0.00000000000000e+00   0.00000000000000e+00   0.00000000000000e+00   0.00000000000000e+00   0.00000000000000e+00   0.00000000000000e+00   0.00000000000000e+00   0.00000000000000e+00   0.00000000000000e+00   0.00000000000000e+00   0.00000000000000e+00   0.00000000000000e+00   0.00000000000000e+00   0.00000000000000e+00   0.00000000000000e+00   0.00000000000000e+00   0.00000000000000e+00   0.00000000000000e+00   0.00000000000000e+00  4.67133192293577e-226   3.23104950068447e-57   5.79572280920340e-05   4.92397565131706e-04   7.68472012501345e-03   1.41665648195660e-01   3.57535453751783e-01   1.20798009351998e-10   3.71086031609131e-11   2.22281093072824e-12   2.82849894815939e-14   6.34924754567397e-17   4.42525883248535e-20   1.10832151021798e-23   1.16605458399078e-27   7.16384856027009e-32   1.41470897283631e-36   4.55615748413511e-41   8.84495813806799e-46   1.36958719097504e-50   6.73546515735513e-55   3.94879344556139e-58   1.18784044310982e-63  3.21322979579852e-147  1.03922770526282e-159   1.31119932859822e-65   5.83188942698594e-67   1.39645148333271e-68   5.66453853289409e-70   4.69048944872576e-71   1.49412660639226e-72   6.89469665370028e-74   1.96518565914922e-75   8.06445274506130e-77   1.34444541816612e-77   5.00916529238260e-79   1.79889331925331e-80   2.68128978980407e-82   7.23369914040610e-84   3.50371684415773e-86   2.11675442208182e-88   1.83742976595400e-90   1.82400429290236e-92   2.09962608286725e-95   3.94450779546575e-99  6.35256733992689e-102  2.81497438755635e-105  9.45509179625924e-109  2.02082653953943e-113  5.47981099126956e-117  1.01633147557527e-120  7.77361978678533e-125  4.24252290791562e-129   7.13118266759059e-62   6.76407187358585e-08   8.51509305263596e-09   1.37395046532357e-13   2.87975470130884e-07   4.52696890245665e-08   1.86406535436961e-09   1.94660605201988e-09   1.73813776578286e-12   2.06886870387253e-13   8.86534640744219e-11   2.47645109979725e-10   7.39417523617366e-11   1.46343082457785e-09   5.68732120383175e-10   1.69415439994282e-09   5.77397486319548e-10   7.79043398343750e-11   5.99756249256900e-11   3.27510409674442e-11   3.20484457445470e-11   3.24490332525742e-11   2.67814247944943e-11   6.22298573033276e-13   9.28864375216077e-10   6.65425318214221e-10   3.55736633491457e-11   9.46577133183828e-11   6.06922071470664e-11   1.94949357405841e-09   3.72898722590604e-10   2.98734895295679e-11   4.23416205356009e-10   9.36387903274021e-11   4.47788323904146e-11   5.13356329674809e-13   2.69546338521770e-12   5.41431592832002e-15   5.38467889742426e-16   4.32268173008622e-17   1.75893730405850e-16   9.59932065863063e-18   3.93732787228571e-20   2.95826115913449e-20   5.41242402159596e-23   7.87998339211971e-22   2.94408901900378e-24   3.90396534032044e-24   2.16642672836369e-25   8.30608689052429e-26   2.78137512596376e-23   8.63523007234087e-24   1.36896637017350e-20   2.58538995145512e-22   1.63730403884453e-19   5.12604197802040e-21   1.60312855071433e-19   1.99647716925651e-18   3.15955838445151e-15   1.50164288817583e-15   7.04712640452767e-18   6.63498532926708e-16   3.01199975204152e-14   3.75033015345097e-12   2.18265508691279e-11   5.60009603611452e-11   5.88842476214732e-11   7.67548537638214e-10   4.63754008342099e-10   1.49907963977574e-08   1.06177846101641e-07   2.64306182844786e-08   8.00269458213391e-09   2.12086573556801e-10   8.67773209434843e-13   1.13723743868501e-14   1.07283134162572e-15   2.80250601830450e-09   1.12737246927686e-02   1.57135121195656e-04   1.77801781763054e-22   5.58893838492608e-78  1.11889880272311e-150  4.65870064128829e-217  8.61750811500768e-245  5.78046148772416e-260  6.68004315835178e-294  8.93892738562042e-315  1.33922007077877e-316  3.96033666273269e-302  7.25082918497996e-296  2.68300639825600e-285  1.26478314730787e-282  7.11045906099053e-277  3.73065561732431e-269  4.02088745402038e-259  3.32593782288957e-248  1.68786339212533e-245  1.13502569231918e-241  1.11510781235292e-233  2.14457034525056e-229  2.94512109410299e-221  3.73597834900518e-217  1.78693470683693e-215  3.47342240705585e-216  2.43514449961455e-211  1.55652189064227e-213  4.20872089612790e-215  9.71994897251615e-210  1.10286246349152e-214  1.86343917820967e-217  3.16639468459092e-214  3.87225044411294e-219  5.49856669588532e-215  7.65392198157974e-223  9.69990593522144e-221  5.27381296688907e-225  4.29686745430068e-224  2.07970018257678e-226  2.39265752786961e-225  1.09200964481373e-234  3.89371804291884e-237  2.61989211888119e-236  8.58823145557278e-247  1.02022185490412e-245  3.02209467860796e-246  2.06153351372257e-247  1.18738388223591e-253  1.07209318527080e-259  1.87252186843778e-260  1.05018510076339e-267  2.09933689402161e-273  7.23678928986392e-286  3.17514701719274e-284  1.48297436573597e-290  7.90150048290427e-302  2.26157152480573e-310  3.44867269308601e-315  8.68784794273082e-319  6.76869934802508e-322   0.00000000000000e+00   0.00000000000000e+00   0.00000000000000e+00   0.00000000000000e+00   0.00000000000000e+00   0.00000000000000e+00   0.00000000000000e+00   0.00000000000000e+00   0.00000000000000e+00   0.00000000000000e+00  1.30772980304612e-298  6.29762818576886e-123   4.11000519945683e-15   6.08839451667191e-01   3.27468900522783e-01   1.04469668719160e-01   1.85407157857386e-02   3.73273561224897e-04   1.06160675150366e-05   2.03430890038049e-07   1.44566653897288e-08   6.00811790638910e-09   9.64944954104161e-09   2.28355224080125e-08   8.00137179213183e-09   2.46162513309133e-11   1.19544372986360e-14   1.04543724522452e-17   6.12481090479260e-21   3.01593926322773e-24   4.03092202998771e-27   3.42402806443409e-30   7.85165349233809e-33   3.71235335300696e-55  4.54751995563633e-124   7.13932077126950e-96   8.26046178666689e-42   1.11017649515051e-43   9.88362739409083e-46   1.17834183507761e-47   2.59180127275845e-49   2.91549973635092e-51   4.60966322619316e-53   3.09952196191733e-55   8.35070190850613e-58   9.83451875600867e-60   9.50659232070697e-63   1.75042633059173e-65   1.36067064179319e-68   2.61135057102227e-71   1.42155896352181e-74   7.79400580660166e-78   5.42899256103589e-81   7.95880210741619e-84   2.29323662172076e-87   1.35836181921503e-91   8.35356289862858e-95   1.52404752084216e-98  2.36675086928633e-102  2.45679382551586e-106  3.26340939463783e-110  4.71919270830904e-114  1.32513368986218e-117  8.53266198438872e-122   1.92525762287892e-23   3.89329756718275e-10   2.42380910137851e-10   6.00635591862344e-12   2.87665874515785e-10   2.15606973676532e-10   8.38367868352119e-11   3.10528403315692e-10   2.78247390281656e-10   2.46327377453269e-10   8.48691614516823e-09   1.60774441796086e-10   2.27667919073557e-10   6.66915644961745e-11   2.22726980179879e-10   1.82658251346077e-10   2.37113292540963e-11   4.16662753031448e-12   3.91962729667184e-13   5.88047655161426e-12   6.29219441179328e-12   1.95701081996590e-10   3.31952874520159e-11   3.82442174903989e-12   2.03229448095606e-12   3.66765558319758e-12   1.34367458495913e-11   4.01314769765327e-12   5.83664356870179e-11   1.49116180071249e-11   4.78235843664558e-12   6.07653992496019e-13   2.50190190180261e-13   2.95178272643829e-16   3.14750656611263e-18   1.61418514820388e-18   2.78180166807931e-20   5.89125268347051e-21   2.02910056248783e-22   2.39083242199841e-23   4.48623224730128e-24   2.33189676861203e-24   7.67355690459147e-26   3.03414641430584e-25   1.50403006371742e-24   1.45113069816412e-22   7.70480525848632e-21   8.51663271941846e-20   4.90696573361334e-16   1.21473217999664e-17   1.56668474995875e-15   6.03591460687652e-14   8.26331563403832e-13   3.34657500926318e-13   1.32970322318683e-11   1.26703441761883e-10   1.60340770444019e-09   6.96961684135497e-10   4.96057486620994e-10   2.87824214143958e-09   3.54543026787416e-09   2.69421243873393e-09   1.27905877656659e-09   5.11722457352616e-09   7.80774560124240e-09   3.03774201939356e-09   1.70037729068814e-09   3.57091986527385e-11   7.11755625259720e-12   1.26044795103221e-07   9.21991052881844e-01   7.49199731980094e-12   4.34949103786193e-42   8.49440339530366e-95  3.45606363723978e-168  1.42030196291290e-229  1.85348011787936e-250  1.35777874883413e-257  1.18380919425096e-285  2.88891668360865e-296  2.65353291224255e-285  1.92047094515297e-273  7.54791010563902e-268  8.67928843898507e-259  9.91833563165944e-253  1.13982209086456e-245  9.40419878374714e-236  1.02691257805960e-226  3.59296663603415e-219  1.20919833646953e-212  5.24850749288483e-207  5.25760591296310e-205  3.48377937673673e-202  2.39046275720166e-198  5.12443599004785e-201  1.61761227078037e-196  4.32081061009833e-194  1.26285497590468e-193  1.49448787277004e-195  1.76982237696763e-198  1.12841453418589e-202  3.43590709825487e-203  4.94523791642938e-193  2.80503109662706e-198  3.94299580314243e-201  3.51525883304800e-200  1.30919780959874e-202  8.36646556935446e-204  9.48844062986697e-206  8.23054364317348e-208  7.91270472307539e-213  3.19208115268427e-207  1.33923738880495e-209  7.76625168743975e-213  4.54682601727109e-213  4.53411701145455e-215  5.63547632324367e-217  1.21829411014831e-217  3.91029080000346e-214  2.01826066433134e-215  9.07912058085218e-219  9.43187685319091e-221  2.91496654295987e-220  1.96323844570546e-221  2.17139032424023e-226  5.03723983098340e-229  2.87854620861778e-230  4.81135487733621e-230  7.33788223958659e-231  1.01042686933149e-233  1.47626884792140e-234  2.30407102925760e-234  3.12317148451586e-235  6.93377221418859e-238  1.66681691409930e-239  2.25668177015213e-239  3.84504025167020e-241  1.29862312455885e-248  1.17717567186337e-248  3.58269980501210e-254  1.74117866070414e-251  1.64941674575705e-253  3.31022270667848e-234   1.46541583104713e-83   1.78205352777014e-03   2.22529958326343e-02   1.84692074039441e-01   6.21569757300405e-01   9.31353301079866e-02   4.36805816931064e-03   7.37076733870753e-05   1.15386764402400e-06   1.55338561727126e-08   1.30761884468681e-10   4.20517901808590e-12   3.77684047531689e-13   4.14998781036351e-14   2.69230056692571e-15   4.56573981301007e-19   1.57036013627052e-22   5.13010923929266e-26   2.02737897456453e-29   2.83613418717499e-32   2.97564068331303e-35   9.30550978802706e-38   3.69026280750617e-81  2.89783714406298e-153   2.58190895484581e-74   4.96707113969882e-47   6.70231742264596e-49   2.19415273956810e-51   9.65261319174706e-54   6.79333889016737e-56   2.33174323861878e-58   9.43873526982022e-61   1.43720815103596e-63   8.18978510099379e-67   4.04672579593985e-69   2.23794039451813e-72   1.02296795693134e-75   2.44434370482414e-79   7.25818999484380e-83   7.70111276970322e-87   7.57928013966612e-91   9.60943892973317e-95   2.26778258538982e-98  1.11278554317070e-102  1.09018405534238e-107  1.11860849557217e-111  1.82968073546532e-115  3.63418359817781e-119  3.09565129058374e-123  4.95659490805281e-127  1.54427836227220e-130  1.05953214970820e-134   4.36480097888855e-88   1.35279019058230e-08   5.39346739996847e-08   2.32354792022059e-08   1.33553707201877e-08   9.91784007191766e-09   7.25880437779505e-09   8.75576116711498e-09   5.63858148058956e-09   4.47025454549048e-09   1.63994117426792e-10   5.87764833446928e-11   3.54560322186013e-10   3.42585087479686e-09   1.46382597651984e-09   2.77472784562429e-10   2.98250094208458e-10   7.30916974656749e-10   1.41201528158708e-09   4.39968562996331e-10   5.60160100217866e-11   5.61566954840574e-11   9.18506045786128e-11   2.91670055042028e-11   3.75240135271025e-11   1.08480829642599e-11   7.54727287163679e-12   2.79424387084039e-12   3.66363552670430e-12   2.60695305065958e-13   1.76804665925329e-13   1.53112798166989e-13   6.84783275016634e-13   2.99284104940083e-14   5.34504333251918e-16   3.82473778220408e-18   1.28599228030370e-19   3.87182788471190e-20   1.03502779818334e-21   5.43534625901339e-23   2.83468554253430e-24   6.62949644351659e-25   1.30467969151977e-25   4.62832765458054e-27   2.25550866336592e-25   3.69789044911604e-27   1.14270828331450e-28   5.02731138721517e-30   8.38008086637435e-29   1.27769285010654e-26   1.60528406400971e-25   2.75471580701710e-25   5.83669482141877e-24   1.11879741903342e-22   9.38013402095778e-22   3.75055006371650e-21   1.27467894221338e-21   4.74834715841049e-22   1.38442098693826e-21   2.62785728414015e-20   5.08156869624509e-20   3.53026246664101e-19   8.39000625407866e-18   4.76608457895566e-17   5.32553948058195e-15   8.17215146308795e-17   2.10481222086969e-15   8.81003586579856e-13   3.98571355732260e-12   4.23961744745290e-14   4.88873925690826e-15   5.68979009879582e-17   9.14740889944215e-17   2.57987351428273e-11   3.69026283748401e-03   3.92846827883808e-04   9.22459207871024e-39  5.54857417416093e-108  6.31218118058722e-188  1.80439711888380e-311   0.00000000000000e+00   0.00000000000000e+00   0.00000000000000e+00   0.00000000000000e+00   0.00000000000000e+00   0.00000000000000e+00   0.00000000000000e+00   0.00000000000000e+00   0.00000000000000e+00   0.00000000000000e+00   0.00000000000000e+00   0.00000000000000e+00   0.00000000000000e+00   0.00000000000000e+00   0.00000000000000e+00   0.00000000000000e+00   0.00000000000000e+00   0.00000000000000e+00   0.00000000000000e+00   0.00000000000000e+00   0.00000000000000e+00   0.00000000000000e+00   0.00000000000000e+00   0.00000000000000e+00   0.00000000000000e+00   0.00000000000000e+00   0.00000000000000e+00   0.00000000000000e+00   0.00000000000000e+00   0.00000000000000e+00   0.00000000000000e+00   0.00000000000000e+00   0.00000000000000e+00   0.00000000000000e+00   0.00000000000000e+00   0.00000000000000e+00   0.00000000000000e+00   0.00000000000000e+00   0.00000000000000e+00   0.00000000000000e+00   0.00000000000000e+00   0.00000000000000e+00   0.00000000000000e+00   0.00000000000000e+00   0.00000000000000e+00   0.00000000000000e+00   0.00000000000000e+00   0.00000000000000e+00   0.00000000000000e+00   0.00000000000000e+00   0.00000000000000e+00   0.00000000000000e+00   0.00000000000000e+00   0.00000000000000e+00   0.00000000000000e+00   0.00000000000000e+00   0.00000000000000e+00   0.00000000000000e+00   0.00000000000000e+00   0.00000000000000e+00   0.00000000000000e+00   0.00000000000000e+00   0.00000000000000e+00   0.00000000000000e+00   0.00000000000000e+00   0.00000000000000e+00   0.00000000000000e+00   0.00000000000000e+00  6.10814262565509e-198   2.16270583617500e-54   9.25050301756866e-03   7.23565036551972e-02   3.16194358953784e-01   5.07351295399357e-01   4.94568743269648e-02   8.69157445471889e-08   2.60166880819350e-10   2.32871160218670e-13   5.95524707123604e-17   7.22865080501126e-21   6.21888514894459e-25   2.56548008090586e-29   1.49864140680279e-33   8.53147391744586e-38   2.79976473357175e-42   2.45848008243820e-46   2.17934585790353e-50   2.26452467941975e-54   1.05441134921782e-57   3.86155340601149e-61   3.63516444686961e-64  7.60086421741193e-158  1.53236938276291e-141   2.86903623620410e-66   7.37136111517328e-67   7.26627319797409e-68   1.03147544186042e-68   3.04150664909528e-69   2.83351296071705e-70   3.10116855366197e-71   1.01189523091082e-72   3.15298590927338e-74   5.29107512824533e-75   9.21199044042213e-77   1.55830511167218e-78   9.89357924136216e-81   2.44307828243964e-82   3.60332507262553e-85   6.30929821529866e-88   1.18228963612386e-90   1.40090612081749e-93   2.87179981850911e-97  3.04166308169004e-101  3.69474211747614e-104  8.83378427780246e-108  1.55203025345185e-111  4.49006219711478e-116  4.22115448688198e-120  5.04860139792084e-124  8.46615907089192e-128  2.76145926701466e-132   7.54801364980450e-59   1.10668029602550e-07   2.04087890579262e-08   4.66172556910367e-12   2.24787371877875e-08   5.32749330504905e-09   1.05035789564386e-10   3.61746572628587e-10   2.54816861358525e-14   4.91683550794488e-16   1.29794619432690e-10   7.28494707335166e-12   1.94339621334509e-11   1.17551294464273e-09   6.13533460723975e-11   5.91645417090401e-10   4.90068928059216e-11   3.39225567605510e-11   4.76544937382301e-11   7.33775657006819e-12   3.80112949942291e-12   7.25142589574310e-12   8.99411502886213e-13   1.36832560734378e-13   4.73254611560244e-13   2.65558429256760e-12   2.38442121962107e-12   3.77515293162654e-13   3.97080838436060e-14   3.37480472443040e-13   1.80800501784727e-14   3.61280973688340e-13   8.09261795477988e-15   6.67262222336674e-17   3.40003697446950e-19   1.25932368527822e-20   1.21423292244906e-21   3.90759735570513e-21   3.04718279470887e-23   1.56542246005895e-26   5.44730293932275e-26   2.49562193123144e-30   9.99204826558878e-29   4.28993343869122e-30   4.30972872252935e-31   9.66812693167064e-32   3.41813135147975e-32   7.35150716289781e-30   2.96571789560793e-30   1.12975055555747e-27   2.53760333038459e-27   5.35975467641515e-27   4.79807376183794e-25   5.52194219302316e-25   4.09341502435378e-25   7.28701046321252e-26   5.71427027672759e-26   6.50673227952151e-25   5.03643402773772e-22   2.26281298386627e-21   1.39192435920493e-18   6.29681355215274e-20   6.85041950781188e-18   3.89910525715740e-15   3.42338209906758e-15   1.38856042333918e-14   1.41033146577651e-14   8.67201712546485e-12   5.85095045793975e-12   8.69276778487228e-11   3.71201479156194e-14   4.07477232155728e-13   1.91077196079280e-14   3.80006533162933e-17   8.17684053458633e-17   7.43347557553075e-08   5.70969233831891e-06   7.38838932275182e-32  3.08006932451347e-101  1.49142081960142e-186  1.08694442085074e-322   0.00000000000000e+00   0.00000000000000e+00   0.00000000000000e+00   0.00000000000000e+00   0.00000000000000e+00   0.00000000000000e+00   0.00000000000000e+00   0.00000000000000e+00   0.00000000000000e+00   0.00000000000000e+00   0.00000000000000e+00   0.00000000000000e+00   0.00000000000000e+00   0.00000000000000e+00   0.00000000000000e+00   0.00000000000000e+00   0.00000000000000e+00   0.00000000000000e+00   0.00000000000000e+00   0.00000000000000e+00   0.00000000000000e+00   0.00000000000000e+00   0.00000000000000e+00   0.00000000000000e+00   0.00000000000000e+00   0.00000000000000e+00   0.00000000000000e+00   0.00000000000000e+00   0.00000000000000e+00   0.00000000000000e+00   0.00000000000000e+00   0.00000000000000e+00   0.00000000000000e+00   0.00000000000000e+00   0.00000000000000e+00   0.00000000000000e+00   0.00000000000000e+00   0.00000000000000e+00   0.00000000000000e+00   0.00000000000000e+00   0.00000000000000e+00   0.00000000000000e+00   0.00000000000000e+00   0.00000000000000e+00   0.00000000000000e+00   0.00000000000000e+00   0.00000000000000e+00   0.00000000000000e+00   0.00000000000000e+00   0.00000000000000e+00   0.00000000000000e+00   0.00000000000000e+00   0.00000000000000e+00   0.00000000000000e+00   0.00000000000000e+00   0.00000000000000e+00   0.00000000000000e+00   0.00000000000000e+00   0.00000000000000e+00   0.00000000000000e+00   0.00000000000000e+00   0.00000000000000e+00   0.00000000000000e+00   0.00000000000000e+00   0.00000000000000e+00   0.00000000000000e+00   0.00000000000000e+00  4.61545085420380e-313  7.76344011200259e-106   6.48761720127619e-11   1.73998590474086e-09   7.67314406768890e-08   6.14411944657947e-06   1.32348886112543e-04   5.60551413236603e-03   8.23650307997697e-02   3.72400646072787e-01   4.13703727547646e-01   9.85152274004172e-02   1.04568128801696e-02   3.76851028518564e-04   7.93337209451304e-06   1.61559698453821e-07   3.64284807681757e-09   2.39732227068941e-10   1.37815525415011e-11   1.40324055069033e-12   5.81664473281118e-13   4.54921789692587e-16   4.07876232500519e-19   1.93421263445489e-60  1.46275987410887e-167   2.25642232824216e-60   9.62301567628678e-30   4.78178320249146e-32   2.79835540261448e-34   2.32673304878186e-36   1.76131995995130e-38   5.13006450803407e-41   6.46599228425869e-43   6.39538180316464e-45   2.57373314499981e-47   4.43837539621250e-49   3.91173935731764e-51   2.77550734543347e-53
