   9.99999999999999e-01   0.00000000000000e+00   0.00000000000000e+00   0.00000000000000e+00   0.00000000000000e+00   0.00000000000000e+00   0.00000000000000e+00   0.00000000000000e+00   0.00000000000000e+00   0.00000000000000e+00   0.00000000000000e+00   0.00000000000000e+00   0.00000000000000e+00   0.00000000000000e+00   0.00000000000000e+00   0.00000000000000e+00   0.00000000000000e+00   0.00000000000000e+00   0.00000000000000e+00   0.00000000000000e+00   0.00000000000000e+00   0.00000000000000e+00   0.00000000000000e+00   0.00000000000000e+00   0.00000000000000e+00   0.00000000000000e+00   0.00000000000000e+00   0.00000000000000e+00   0.00000000000000e+00   0.00000000000000e+00   0.00000000000000e+00   0.00000000000000e+00   0.00000000000000e+00   0.00000000000000e+00   0.00000000000000e+00   0.00000000000000e+00   0.00000000000000e+00   0.00000000000000e+00   0.00000000000000e+00   0.00000000000000e+00   0.00000000000000e+00   0.00000000000000e+00   0.00000000000000e+00   0.00000000000000e+00   0.00000000000000e+00   0.00000000000000e+00   0.00000000000000e+00   0.00000000000000e+00   0.00000000000000e+00   0.00000000000000e+00   0.00000000000000e+00   0.00000000000000e+00  3.04197699241041e-103  1.08628280580107e-106   0.00000000000000e+00  8.00666020848875e-116  9.97336936496628e-121  3.22873190169534e-123  1.95159538035520e-127   0.00000000000000e+00   0.00000000000000e+00  1.36631546405029e-130  2.39680094947276e-132  8.42864922021055e-135  1.02616444250918e-130  1.28250089126145e-130  6.90665509926489e-133  9.90746559394176e-130  6.27938879419808e-131  7.48697382574008e-133  1.84719123285302e-135  2.05129708729752e-136  2.32907304484193e-136  1.33795429718789e-137  4.37177887347753e-138  2.14368304489113e-143  2.21926118943557e-141  2.07366403010982e-140  9.61077953154334e-148  4.59978563163704e-166  2.00328826774983e-178  1.82262736953038e-197  8.95026214805519e-193  1.29626570736071e-146   3.62799205300857e-95   1.35040396910446e-51   9.97137587017334e-01   1.83800459720079e-25  6.55974385118783e-165  5.02124032186780e-309   0.00000000000000e+00   0.00000000000000e+00   0.00000000000000e+00   0.00000000000000e+00   0.00000000000000e+00   0.00000000000000e+00   0.00000000000000e+00   0.00000000000000e+00   0.00000000000000e+00   0.00000000000000e+00   0.00000000000000e+00   0.00000000000000e+00   0.00000000000000e+00   0.00000000000000e+00   0.00000000000000e+00   0.00000000000000e+00   0.00000000000000e+00   0.00000000000000e+00   0.00000000000000e+00   0.00000000000000e+00   0.00000000000000e+00   0.00000000000000e+00   0.00000000000000e+00   0.00000000000000e+00   0.00000000000000e+00   0.00000000000000e+00   0.00000000000000e+00   0.00000000000000e+00   0.00000000000000e+00   0.00000000000000e+00   0.00000000000000e+00   0.00000000000000e+00   0.00000000000000e+00   0.00000000000000e+00   0.00000000000000e+00   0.00000000000000e+00   0.00000000000000e+00   0.00000000000000e+00   0.00000000000000e+00   0.00000000000000e+00   0.00000000000000e+00   0.00000000000000e+00   0.00000000000000e+00   0.00000000000000e+00   0.00000000000000e+00   0.00000000000000e+00   0.00000000000000e+00   0.00000000000000e+00   0.00000000000000e+00   0.00000000000000e+00   0.00000000000000e+00   0.00000000000000e+00   0.00000000000000e+00   0.00000000000000e+00   0.00000000000000e+00   0.00000000000000e+00   0.00000000000000e+00   0.00000000000000e+00   0.00000000000000e+00   0.00000000000000e+00   0.00000000000000e+00   0.00000000000000e+00   0.00000000000000e+00   0.00000000000000e+00   0.00000000000000e+00   0.00000000000000e+00   0.00000000000000e+00   0.00000000000000e+00   0.00000000000000e+00   0.00000000000000e+00  1.58445214250792e-212   9.92670267999366e-44   9.99999999704475e-01   1.26743891169341e-09   5.58124790926508e-09   1.69732276085741e-08   6.71825602657542e-09   8.63250485399708e-10   8.79517866352567e-12   6.32262225899960e-14   1.48011491798068e-16   7.53287694007423e-20   2.42210141578836e-23   1.18505766109756e-27   2.93978284808044e-32   5.71451723537586e-37   2.39800224515573e-42   7.41691682784385e-48   2.31659447453856e-53   4.98788476191172e-59   2.35434934981961e-64   1.00425796634936e-68   3.12615912078971e-75  8.59626899705065e-160  2.20432966091977e-173   1.68086487849242e-80   7.70233616531795e-83   1.90069649230638e-85   3.09864789498164e-88   8.50016550214799e-91   1.52658731939299e-93   8.56740703239306e-96   2.43068362205696e-98  3.48142594181116e-101  2.13374125696634e-103  2.69805746935269e-106  3.76558509432238e-109  2.58472421853996e-112  8.67272110605234e-115  4.43390730865362e-118  8.92161440418013e-122  1.33554687710733e-125  2.47112673388735e-129  4.61740640010677e-133  2.14802525577321e-138  1.14737907201159e-142  2.36125611716378e-147  3.86162233986373e-152  4.75874885389003e-157  9.43798674457101e-162  1.54043593676593e-166  2.09391660664323e-171  7.08797918413149e-177  8.66416140259258e-157  6.97910200356641e-101  2.68264852143190e-102  9.23564700134585e-111  4.68877466115352e-106  1.48540404875357e-104  8.34592345187452e-106  2.64536694188522e-110  1.98024270177983e-115  8.27541182776700e-114  1.42999734936266e-113  2.73779491706625e-116  1.43678228816037e-115  1.50715122690985e-115  1.12488844791713e-116  2.17374252212741e-117  3.37305028185382e-123  1.87007973240228e-124  3.47201084038264e-123  8.45184104031274e-126  1.65854480049631e-128  5.05698107789483e-129  3.42254050424688e-131  3.27725240337800e-133  1.53054957777742e-135  1.45591866245202e-134  6.19502002023318e-135  3.55121618082335e-133  3.94352593719407e-136  2.37382643985439e-134  9.32469837368038e-135  1.25188139708051e-133  8.67020902460703e-135  9.56101175607411e-136  9.32829464305043e-136  7.51119566526492e-138  4.33234761014752e-141  3.80042567725476e-146  2.90091340466685e-144  1.07644643551108e-142  4.70235499204192e-146  4.01365830190996e-151  6.56898542094458e-153  1.17018877522522e-157  6.41581449469595e-164  5.43883874886539e-170  6.19315928566504e-172  1.26993276792861e-173  1.19818801812463e-178  3.16800246806476e-181  2.66456243447426e-182  4.11358812146276e-186  2.02657030578070e-186  1.22229734212536e-187  1.50308713783867e-188  5.57039105223655e-187  7.26645199404797e-188  9.65891781540223e-187  2.31817126695686e-186  2.53934211619673e-187  4.04361695111999e-192  1.35350457220300e-194  8.34832541642231e-195  1.95636896442952e-191  9.35046168083053e-191  8.46739692280423e-194  3.29245236797558e-200  2.14914625621425e-206  1.61047578080914e-217  4.60046254633520e-228  1.54927713556321e-249  1.87037836729543e-264  1.63943818413439e-265  1.91213990345439e-243  1.53957879663557e-198  3.25294626491052e-151  1.22216884994838e-116   5.24568823200116e-86   3.37005851531027e-32   4.26465364704356e-01   9.88667807477998e-09  2.56473038925016e-110  7.29366885807813e-239  4.94065645841247e-324   0.00000000000000e+00   0.00000000000000e+00   0.00000000000000e+00   0.00000000000000e+00   0.00000000000000e+00   0.00000000000000e+00   0.00000000000000e+00   0.00000000000000e+00   0.00000000000000e+00   0.00000000000000e+00   0.00000000000000e+00   0.00000000000000e+00   0.00000000000000e+00   0.00000000000000e+00   0.00000000000000e+00  3.45845952088873e-323  5.02000340113457e-319  2.67650005396671e-314  6.30266025973103e-314  1.73731036114557e-313  6.43361091718126e-313  7.14869426935289e-306  3.73162331433346e-304  8.31367254640865e-307  1.65989543746269e-306  2.15369627737368e-313  1.80848787016334e-316  2.09845835735396e-317   0.00000000000000e+00  8.36315047061218e-317  1.34385855668819e-321  4.27366783652678e-321   0.00000000000000e+00   0.00000000000000e+00   0.00000000000000e+00   0.00000000000000e+00   0.00000000000000e+00   0.00000000000000e+00   0.00000000000000e+00   0.00000000000000e+00   0.00000000000000e+00   0.00000000000000e+00   0.00000000000000e+00   0.00000000000000e+00   0.00000000000000e+00   0.00000000000000e+00   0.00000000000000e+00   0.00000000000000e+00   0.00000000000000e+00   0.00000000000000e+00   0.00000000000000e+00   0.00000000000000e+00   0.00000000000000e+00   0.00000000000000e+00   0.00000000000000e+00   0.00000000000000e+00   0.00000000000000e+00   0.00000000000000e+00   0.00000000000000e+00   0.00000000000000e+00   0.00000000000000e+00   0.00000000000000e+00   0.00000000000000e+00   0.00000000000000e+00   0.00000000000000e+00   0.00000000000000e+00  1.66010190653101e-308  2.02007148632626e-133   5.35155527132787e-26   6.32247267457010e-12   9.20391139840769e-12   1.05330402553082e-11   4.36116474884094e-11   6.81133875157502e-10   3.45877755809098e-08   1.13438427254441e-06   2.40953308440873e-07   6.00859643448237e-10   7.16095630883261e-13   4.75686581299187e-16   1.19033676572770e-19   2.72152866909345e-23   2.98184231809334e-27   2.97182240547153e-31   1.61555136305625e-35   7.22056945587893e-40   7.95295952763414e-44   4.78029713246413e-48   9.12776082452318e-52   4.30985942318155e-75  4.63310204639756e-145  2.82220356597326e-118   1.91005100430776e-65   2.70060079421999e-68   2.49471187801634e-71   2.24013062373267e-74   2.34846612962082e-77   1.52518944806251e-80   9.80263753169716e-84   1.90589806644645e-87   1.40819800653036e-91   4.23700585937954e-95   3.65587387888566e-99  4.13862051007072e-103  2.22125053543342e-107  5.23301974489246e-111  2.74584450883375e-115  9.55375289271445e-120  3.60876864191223e-124  2.03393435908040e-128  4.38684082288972e-133  3.64240526385860e-138  1.45875094959896e-142  1.98460515486080e-147  6.89802802159376e-152  1.15659896624530e-156  3.79870169573050e-161  6.47686652886504e-166  1.48065104723878e-170  1.77235819927253e-175  2.73913308098835e-124  8.17139801206517e-111  6.90767927491729e-114  3.44808209079577e-118  1.44905230659661e-119  4.44376218333516e-119  5.23637936840579e-118  1.89254185075683e-116  8.22392903022565e-117  6.09493231770893e-118  2.43465731769472e-120  5.63620837438791e-122  2.40354526924708e-123  1.21020040735452e-122  7.64976072486965e-124  2.37807986020500e-129  8.53408830239287e-134  9.07168066076073e-134  5.67410537290741e-132  1.44636376650890e-131  3.48985786995844e-135  1.53095171347968e-138  1.03790908604350e-138  2.47102340471039e-138  5.64300273709757e-142  1.59612623655505e-142  2.59967703076786e-139  1.88400813943697e-138  1.09363868830075e-137  8.15248066789243e-138  7.12730814805621e-138  5.04430468984277e-137  1.01203615911980e-136  1.39576621062308e-143  2.13890067493032e-146  2.76621423650644e-148  2.70573826487446e-150  1.25143147514303e-155  5.09667795654752e-160  6.72188217134316e-165  2.18981482605074e-171  2.57134774061703e-178  1.06162545426611e-181  4.94168250951930e-181  6.24809695210837e-185  4.18133271707901e-187  1.71067719717738e-187  1.30040888601062e-182  3.79269111176386e-180  1.47274650036137e-183  4.18381884727814e-185  1.00988828257767e-182  2.38605175068006e-180  1.04852187087264e-178  5.41946199039267e-182  5.67290331718935e-182  5.46436429543242e-183  3.09534227305781e-185  6.22678657864840e-186  1.19917858815672e-187  7.69538604259944e-190  1.74939569695077e-201  8.72982984534447e-215  7.45432550585720e-227  7.06898130291237e-237  5.57591157763457e-220  1.59439437124575e-173  1.21368515630591e-131  5.94798898069418e-110   5.18978027271548e-82   1.78275917964060e-24   9.96850140172599e-01   2.86858326521938e-26  1.01255913930263e-132  8.04706936655265e-263   0.00000000000000e+00   0.00000000000000e+00   0.00000000000000e+00   0.00000000000000e+00   0.00000000000000e+00   0.00000000000000e+00   0.00000000000000e+00   0.00000000000000e+00   0.00000000000000e+00   0.00000000000000e+00  5.46337791171250e-319  3.93439196846767e-309  1.33467916678230e-297  5.06357516507334e-292  1.02316980715947e-286  6.66614712889547e-282  3.78578721084389e-280  2.46781615723496e-279  7.52160073557495e-274  9.51602591594460e-273  2.73246390464239e-275  1.29923882771212e-271  1.23055039949799e-271  1.67962667319886e-275  5.92613271525915e-274  1.25448759099120e-280  3.17251092524832e-285  1.46437686800757e-274  1.58313681985869e-277  2.88359192281661e-280  1.16029846114063e-282  4.24916599955619e-283  4.76929388399404e-283  1.54978427629531e-288  1.02938829871988e-286  7.38505362028873e-292  9.09458828325857e-292  1.80281754812842e-297  6.02084982090875e-302  3.43270056052745e-304  4.94556640516783e-303  1.43052452115303e-308  2.26721359625439e-310  3.82452412980148e-314  1.17134417293287e-317  1.82804288961261e-322   0.00000000000000e+00   0.00000000000000e+00   0.00000000000000e+00   0.00000000000000e+00   0.00000000000000e+00   0.00000000000000e+00   0.00000000000000e+00   0.00000000000000e+00   0.00000000000000e+00   0.00000000000000e+00   0.00000000000000e+00   0.00000000000000e+00   0.00000000000000e+00   0.00000000000000e+00   0.00000000000000e+00   0.00000000000000e+00   0.00000000000000e+00   0.00000000000000e+00   0.00000000000000e+00   0.00000000000000e+00   0.00000000000000e+00  1.65039050054530e-246   1.95847817500660e-96   6.37760741383454e-17   3.73508169902131e-16   7.39746960573910e-15   2.35838707637660e-13   1.04541334791491e-12   1.67237988679229e-11   1.47825359608430e-09   1.12766104972919e-07   3.04305031363488e-06   1.04768195497535e-07   4.92325281713229e-12   1.29539482369248e-16   1.38793728926663e-21   3.35651021452698e-26   7.15514836648603e-31   3.26564403940290e-35   1.00894090034681e-39   5.77860490258251e-44   9.11823407956481e-48   6.44790634807696e-52   1.10329117792478e-55  4.37929612085031e-100  4.48145415655749e-173   1.80200340578633e-95   1.57660675396897e-69   1.10443687437238e-72   3.89794649393089e-76   1.08428393695346e-79   2.60728991968095e-83   3.12946026326165e-87   7.87301303518807e-91   5.35988236135836e-95   1.77048237348417e-99  1.49576993604135e-103  3.30050992621436e-108  8.15218526050071e-113  9.01102722217674e-118  4.11275855043215e-122  3.74698265090229e-127  2.06627739133460e-132  1.31985290553626e-137  2.02815845705344e-142  1.59967019772783e-147  1.48859269656043e-153  1.09770669215430e-158  3.70010086989742e-164  3.41436382675888e-169  3.50907060054020e-174  2.23523257303303e-179  2.38637101399801e-184  2.57575614533673e-189  3.54170212716294e-188  9.92467929614190e-110  1.59106273528675e-108  7.34899962233260e-110  9.89798279604760e-113  1.08925076923065e-113  5.72526321223567e-111  2.47711668469784e-113  6.77536106289631e-118  9.04139706129853e-121  4.35219128150571e-121  1.28308423000463e-118  9.27746188362826e-121  9.34339544310430e-126  2.15528698985014e-125  3.93804443513724e-124  2.32570956035502e-125  1.11164585182919e-127  1.57427972670690e-129  4.36857339476043e-130  8.73669306473410e-131  6.64812160426438e-133  2.39582947266589e-136  3.33526381895806e-136  9.22635125024653e-136  1.67937915223343e-139  3.60862410026847e-140  1.95391116525244e-139  3.83857854349276e-140  1.07455620002501e-140  5.35515033738536e-139  9.62541086647149e-135  6.39067100355791e-136  1.67030682933644e-139  2.82639703763967e-143  8.14877891121295e-146  3.78261652354890e-143  9.20398367143686e-145  7.59013047395876e-151  1.42170117167636e-152  1.09163190689621e-153  5.48798851878067e-157  4.25199127160096e-166  5.60921450487483e-171  8.31525744838897e-173  1.47512609205249e-175  2.36569831155952e-180  1.50385831992853e-181  2.46678457320852e-183  1.71580792300985e-186  1.46231021517225e-189  1.69434969630638e-191  4.21183627476851e-188  2.05298461459856e-187  1.24452725944718e-191  1.10545633135112e-195  6.26883239678174e-194  2.46293364609226e-192  2.29397435507102e-194  3.72850694808902e-195  6.84900551532895e-197  4.26999529878814e-195  6.64694215298571e-197  6.13868330065712e-200  1.25025327603176e-205  4.88650628302529e-220  6.63806639154289e-233  3.93687667043718e-257  5.69648277412419e-268  5.43949694342020e-252  5.04272915858098e-202  1.15643406624026e-142  1.53265565013744e-100   1.07382564097270e-53   9.85357172962536e-01   1.31924389400148e-40  1.49297193864930e-196   0.00000000000000e+00   0.00000000000000e+00   0.00000000000000e+00   0.00000000000000e+00   0.00000000000000e+00   0.00000000000000e+00   0.00000000000000e+00   0.00000000000000e+00   0.00000000000000e+00   0.00000000000000e+00   0.00000000000000e+00   0.00000000000000e+00   0.00000000000000e+00   0.00000000000000e+00   0.00000000000000e+00   0.00000000000000e+00   0.00000000000000e+00   0.00000000000000e+00   0.00000000000000e+00   0.00000000000000e+00   0.00000000000000e+00   0.00000000000000e+00   0.00000000000000e+00   0.00000000000000e+00   0.00000000000000e+00   0.00000000000000e+00   0.00000000000000e+00   0.00000000000000e+00   0.00000000000000e+00   0.00000000000000e+00   0.00000000000000e+00   0.00000000000000e+00   0.00000000000000e+00   0.00000000000000e+00   0.00000000000000e+00   0.00000000000000e+00   0.00000000000000e+00   0.00000000000000e+00   0.00000000000000e+00   0.00000000000000e+00   0.00000000000000e+00   0.00000000000000e+00   0.00000000000000e+00   0.00000000000000e+00   0.00000000000000e+00   0.00000000000000e+00   0.00000000000000e+00   0.00000000000000e+00   0.00000000000000e+00   0.00000000000000e+00   0.00000000000000e+00   0.00000000000000e+00   0.00000000000000e+00   0.00000000000000e+00   0.00000000000000e+00   0.00000000000000e+00   0.00000000000000e+00   0.00000000000000e+00   0.00000000000000e+00   0.00000000000000e+00   0.00000000000000e+00   0.00000000000000e+00   0.00000000000000e+00   0.00000000000000e+00   0.00000000000000e+00   0.00000000000000e+00   0.00000000000000e+00   0.00000000000000e+00   0.00000000000000e+00   0.00000000000000e+00   0.00000000000000e+00  6.53156594621998e-191   1.17203521421741e-47   9.99955338174478e-01   3.58287998306355e-05   2.43565778175955e-06   1.05397613404013e-07   2.40313651403576e-10   3.62085073724720e-13   1.51501029003938e-16   9.69439657360177e-21   1.22049090640697e-24   3.56398875147749e-29   8.27557990653277e-34   8.89559143238746e-39   1.03529978364884e-43   1.56226279133912e-48   7.19744662923078e-54   7.48515033244652e-59   8.67206355633371e-64   1.07827809586535e-68   5.03330707683473e-73   1.42856386819857e-77   1.19630572577959e-81  1.96996514198414e-176  1.90559518084787e-161   1.61923960828163e-87   3.23971493353151e-89   3.19454036201622e-91   1.66212323274174e-93   1.17314524123906e-95   4.20739000732916e-98  2.81552802843309e-100  6.43807865864662e-103  5.06278165372786e-106  2.83756759483792e-108  1.96333050152944e-111  1.22360088990737e-114  3.36056172621516e-118  2.22444174797625e-121  1.19793080727783e-125  6.26351880610258e-130  4.11142208417946e-134  3.27630381665899e-138  1.20226462420259e-142  4.52674229977705e-148  1.04508748622595e-152  9.21309029002223e-158  1.89230028329192e-162  1.44286479538014e-167  1.29716673033786e-172  7.72786999049742e-178  7.48658247186826e-183  2.84222854895839e-188  1.59418903008324e-159  1.11844976594441e-106  9.75101967771511e-107  2.57440769344098e-115  1.99547270092603e-111  3.93270993299195e-112  8.00586409385276e-114  2.40288000630771e-116  1.61130121403107e-123  2.05863568916165e-126  4.94117969931455e-120  9.36320477863904e-123  2.06790386004819e-123  1.26884229208247e-121  1.40477633179444e-123  4.87867701802516e-124  2.50189339567455e-129  2.01229881934728e-128  3.57135243335431e-128  6.96924867447947e-132  1.29000685763384e-135  2.27153082762131e-136  2.14704204395830e-134  1.25754164496290e-135  2.79221192404267e-138  9.33019636261964e-141  6.00036110817321e-142  4.10688473692299e-140  3.00644336376481e-139  2.91115695309488e-138  4.36101143849254e-135  1.71529693553142e-134  6.35048628448096e-137  3.17483265699607e-141  1.05535909338472e-142  5.82867178556139e-141  3.78741912839422e-144  4.97241045842770e-148  3.84637835766902e-149  1.37581480207858e-151  3.16779589166192e-157  3.86384096101323e-168  2.93544081086969e-172  4.90649494926793e-173  1.97686966143443e-175  6.82492184105113e-182  4.66852817330524e-183  3.78665572876168e-181  1.38699577404034e-181  3.73832640356535e-185  1.69929344399109e-190  5.59950611261735e-192  2.98086606707722e-193  2.20798639297028e-195  8.90708976194529e-198  1.56398530331267e-199  5.46249252924723e-197  4.92456816243101e-202  1.10279617634441e-200  1.89914000115289e-200  7.37618884818600e-194  1.64352009088630e-195  9.12825949259081e-198  1.25843444264315e-193  1.14888769000144e-191  7.07425960171999e-194  5.22627903251675e-202  4.58897054487255e-213  8.08682086811487e-230  2.70704742288725e-252  1.09083793699858e-259  6.57711075004336e-216  1.36212586919282e-147  1.94801595194098e-100   2.05454715035133e-49   9.93195870595782e-01   1.41351430442420e-56  3.32872892225343e-178  3.26295516176268e-253   0.00000000000000e+00   0.00000000000000e+00   0.00000000000000e+00   0.00000000000000e+00   0.00000000000000e+00   0.00000000000000e+00   0.00000000000000e+00   0.00000000000000e+00   0.00000000000000e+00   0.00000000000000e+00   0.00000000000000e+00   0.00000000000000e+00   0.00000000000000e+00   0.00000000000000e+00   0.00000000000000e+00   0.00000000000000e+00   0.00000000000000e+00   0.00000000000000e+00   0.00000000000000e+00   0.00000000000000e+00   0.00000000000000e+00   0.00000000000000e+00   0.00000000000000e+00   0.00000000000000e+00   0.00000000000000e+00   0.00000000000000e+00   0.00000000000000e+00   0.00000000000000e+00   0.00000000000000e+00   0.00000000000000e+00   0.00000000000000e+00   0.00000000000000e+00   0.00000000000000e+00   0.00000000000000e+00   0.00000000000000e+00   0.00000000000000e+00   0.00000000000000e+00   0.00000000000000e+00   0.00000000000000e+00   0.00000000000000e+00   0.00000000000000e+00   0.00000000000000e+00   0.00000000000000e+00   0.00000000000000e+00   0.00000000000000e+00   0.00000000000000e+00   0.00000000000000e+00   0.00000000000000e+00   0.00000000000000e+00   0.00000000000000e+00   0.00000000000000e+00   0.00000000000000e+00   0.00000000000000e+00   0.00000000000000e+00   0.00000000000000e+00   0.00000000000000e+00   0.00000000000000e+00   0.00000000000000e+00   0.00000000000000e+00   0.00000000000000e+00   0.00000000000000e+00   0.00000000000000e+00   0.00000000000000e+00   0.00000000000000e+00   0.00000000000000e+00   0.00000000000000e+00   0.00000000000000e+00   0.00000000000000e+00   0.00000000000000e+00  4.44659081257122e-323  2.27962347491871e-115   4.01367442211988e-20   1.48043414144729e-18   1.04745927215481e-16   7.99129944201529e-15   8.64880320646042e-14   4.69626158812620e-13   8.23029617218204e-13   1.49455851618928e-12   1.95181834126822e-12   7.44310228531102e-12   5.55824788770869e-11   5.29825227211269e-10   1.52429700275775e-08   9.18188603708938e-07   6.62140710642674e-08   2.37649086865273e-11   3.12725367095451e-15   1.18837888385369e-19   1.38548995647888e-23   5.90290976907751e-28   7.65508300363897e-32   3.17691821220368e-74  1.60359818810885e-182   1.55100369111349e-76   8.32082360263480e-47   3.49503491714485e-50   7.39062946366754e-54   2.07178184549839e-57   1.02104073172375e-60   2.10176634232205e-64   1.53826692516789e-67
   0.00000000000000e+00   9.99999999999999e-01   0.00000000000000e+00   0.00000000000000e+00   0.00000000000000e+00   0.00000000000000e+00   0.00000000000000e+00   0.00000000000000e+00   0.00000000000000e+00   0.00000000000000e+00   0.00000000000000e+00   0.00000000000000e+00   0.00000000000000e+00   0.00000000000000e+00   0.00000000000000e+00   0.00000000000000e+00   0.00000000000000e+00   0.00000000000000e+00   0.00000000000000e+00   0.00000000000000e+00   0.00000000000000e+00   0.00000000000000e+00   0.00000000000000e+00   0.00000000000000e+00   0.00000000000000e+00   0.00000000000000e+00   0.00000000000000e+00   0.00000000000000e+00   0.00000000000000e+00   0.00000000000000e+00   0.00000000000000e+00   0.00000000000000e+00   0.00000000000000e+00   0.00000000000000e+00   0.00000000000000e+00   0.00000000000000e+00   0.00000000000000e+00   0.00000000000000e+00   0.00000000000000e+00   0.00000000000000e+00   0.00000000000000e+00   0.00000000000000e+00   0.00000000000000e+00   0.00000000000000e+00   0.00000000000000e+00   0.00000000000000e+00   0.00000000000000e+00   0.00000000000000e+00   0.00000000000000e+00   0.00000000000000e+00   0.00000000000000e+00   0.00000000000000e+00   0.00000000000000e+00  1.72225293870944e-103  6.45398655869618e-107   0.00000000000000e+00  5.18863154926053e-116  6.84341294318316e-121  2.41827914555599e-123  1.40742790602140e-127   0.00000000000000e+00   0.00000000000000e+00  1.91083289250017e-130  2.51216860650192e-132  7.91235809309962e-135  1.08716656663157e-130  1.33771471954718e-130  6.06652928301502e-133  8.08651631972183e-130  4.00553510017337e-131  7.59501870616275e-133  2.20596544720979e-135  2.68278310230116e-136  2.03413925084375e-136  8.29090481413026e-138  6.63448440095554e-138  4.08545083369627e-143  7.82480260107732e-142  8.22872136652830e-141  3.21733760897621e-147  1.38065900776208e-164  8.84866901432882e-178  1.28006374832863e-198  5.69048341261986e-192  1.00367043344668e-149   3.63087954265585e-77   2.86241298266668e-03   9.99999999999992e-01   2.92705669537899e-27  9.40388483415198e-182  1.10738068692424e-305   0.00000000000000e+00   0.00000000000000e+00   0.00000000000000e+00   0.00000000000000e+00   0.00000000000000e+00   0.00000000000000e+00   0.00000000000000e+00   0.00000000000000e+00   0.00000000000000e+00   0.00000000000000e+00   0.00000000000000e+00   0.00000000000000e+00   0.00000000000000e+00   0.00000000000000e+00   0.00000000000000e+00   0.00000000000000e+00   0.00000000000000e+00   0.00000000000000e+00   0.00000000000000e+00   0.00000000000000e+00   0.00000000000000e+00   0.00000000000000e+00   0.00000000000000e+00   0.00000000000000e+00   0.00000000000000e+00   0.00000000000000e+00   0.00000000000000e+00   0.00000000000000e+00   0.00000000000000e+00   0.00000000000000e+00   0.00000000000000e+00   0.00000000000000e+00   0.00000000000000e+00   0.00000000000000e+00   0.00000000000000e+00   0.00000000000000e+00   0.00000000000000e+00   0.00000000000000e+00   0.00000000000000e+00   0.00000000000000e+00   0.00000000000000e+00   0.00000000000000e+00   0.00000000000000e+00   0.00000000000000e+00   0.00000000000000e+00   0.00000000000000e+00   0.00000000000000e+00   0.00000000000000e+00   0.00000000000000e+00   0.00000000000000e+00   0.00000000000000e+00   0.00000000000000e+00   0.00000000000000e+00   0.00000000000000e+00   0.00000000000000e+00   0.00000000000000e+00   0.00000000000000e+00   0.00000000000000e+00   0.00000000000000e+00   0.00000000000000e+00   0.00000000000000e+00   0.00000000000000e+00   0.00000000000000e+00   0.00000000000000e+00   0.00000000000000e+00   0.00000000000000e+00   0.00000000000000e+00   0.00000000000000e+00   0.00000000000000e+00   0.00000000000000e+00  1.47952083552314e-212   1.82465147713243e-53   9.99999998368763e-01   1.14484272301436e-09   4.77466014998304e-09   1.96014956596123e-08   1.54855286137681e-08   1.03035134653333e-09   9.94902746945434e-12   9.03425490388290e-14   2.67763310054328e-16   2.26043161451793e-19   3.53132236023019e-23   1.12591120407753e-27   3.47640582643026e-32   8.03248274493307e-37   1.61099674570405e-42   5.41732303602015e-48   1.89004182043498e-53   4.58462945489964e-59   1.65243974115004e-64   7.02788252594669e-69   2.38930572071184e-75  6.91670184362256e-160  1.50693366191559e-173   1.22081958737503e-80   6.67609726316158e-83   1.33150892270329e-85   2.23100423828066e-88   6.12952356153838e-91   1.14831628853609e-93   6.87508422897529e-96   2.06232868662389e-98  3.23650970110042e-101  1.98202742111055e-103  2.12573977671016e-106  2.86219019169110e-109  2.34359792718032e-112  1.11171639124963e-114  4.14967932491839e-118  7.52519781247583e-122  1.21003218222093e-125  4.45695636073699e-129  3.46548839530624e-133  1.69336832012202e-138  1.01889498408897e-142  2.13658202024789e-147  3.26017011266546e-152  3.68807419072301e-157  8.28516863727312e-162  1.72912331115725e-166  1.89301197126535e-171  5.36219928545725e-177  5.40048545998124e-157  6.11082659038014e-101  2.29899674170504e-102  6.78568656171772e-111  3.11346262030205e-106  1.06240966033708e-104  9.24600277741393e-106  2.54280504277556e-110  1.60579234046089e-115  6.80281668266735e-114  1.16853772154992e-113  1.92603220285457e-116  1.08895987213468e-115  1.06653398535484e-115  7.98382834006048e-117  1.73077408228432e-117  2.44207304833738e-123  1.16122334173879e-124  2.27269596195529e-123  5.98347538512721e-126  1.03863386445446e-128  3.75827019306134e-129  2.64574660141113e-131  2.48403730482870e-133  1.04858313870786e-135  1.00067528729500e-134  4.46792140494913e-135  2.55377811082716e-133  2.91168830669000e-136  1.62012375756209e-134  5.90540164340229e-135  7.86253585022520e-134  5.96354092275479e-135  7.47868052832386e-136  5.10469381043299e-136  4.35790275983623e-138  4.04299284265677e-141  5.08529958290234e-146  1.42316473410290e-144  6.54291657380493e-143  4.20403704180793e-146  2.29544181908138e-151  2.86681386411955e-153  8.06631614807194e-158  4.58928004404928e-164  3.53653453804199e-170  3.35487248513329e-172  1.19830730413061e-173  1.01775538507707e-178  2.43354547778760e-181  2.38028893047220e-182  3.46513225864481e-186  1.67592183637443e-186  9.98303186344565e-188  1.16748972783273e-188  4.21320830295238e-187  5.49031939891911e-188  8.15333048161635e-187  2.23075854919722e-186  2.78718676827091e-187  4.28347627120136e-192  1.13553689619369e-194  6.46483788198117e-195  1.78362375635900e-191  2.63191838545958e-190  6.21044590788675e-193  5.27028590059506e-200  2.80846294926117e-206  4.18821569078639e-216  4.63023672521864e-226  5.84301540069325e-249  7.68449763936639e-265  1.04544353812426e-263  1.96256996760832e-240  2.07584778263804e-198  8.38622814703185e-153  2.77461470788033e-103   1.11471094711446e-31   2.62364285282233e-08   1.59154815470102e-11   2.85634487480509e-07  1.44621226893838e-109  2.33078318169974e-233  1.39494904521304e-315   0.00000000000000e+00   0.00000000000000e+00   0.00000000000000e+00   0.00000000000000e+00   0.00000000000000e+00   0.00000000000000e+00   0.00000000000000e+00   0.00000000000000e+00   0.00000000000000e+00   0.00000000000000e+00   0.00000000000000e+00   0.00000000000000e+00   0.00000000000000e+00   0.00000000000000e+00   0.00000000000000e+00  2.47032822920623e-323  3.81715117976947e-319  1.31292825083584e-314  4.65686431301185e-314  1.31021776352142e-313  3.66684224079828e-313  5.35539643202866e-306  3.64419146458118e-304  7.30557997766479e-307  1.25182763621751e-306  1.54581200143536e-313  1.47799164837260e-316  1.67558213635634e-317   0.00000000000000e+00  5.11986691386588e-317  6.76869934802508e-322  3.34976507880365e-321   0.00000000000000e+00   0.00000000000000e+00   0.00000000000000e+00   0.00000000000000e+00   0.00000000000000e+00   0.00000000000000e+00   0.00000000000000e+00   0.00000000000000e+00   0.00000000000000e+00   0.00000000000000e+00   0.00000000000000e+00   0.00000000000000e+00   0.00000000000000e+00   0.00000000000000e+00   0.00000000000000e+00   0.00000000000000e+00   0.00000000000000e+00   0.00000000000000e+00   0.00000000000000e+00   0.00000000000000e+00   0.00000000000000e+00   0.00000000000000e+00   0.00000000000000e+00   0.00000000000000e+00   0.00000000000000e+00   0.00000000000000e+00   0.00000000000000e+00   0.00000000000000e+00   0.00000000000000e+00   0.00000000000000e+00   0.00000000000000e+00   0.00000000000000e+00   0.00000000000000e+00   0.00000000000000e+00  1.28437121120730e-308  1.76002295140992e-133   1.69561938225408e-25   6.96127349293324e-11   8.25839164924815e-11   1.98314482449159e-10   5.72880176126112e-09   3.05763736739347e-07   9.47919738764359e-06   3.51476261751101e-06   2.28164427062065e-07   5.60357651751930e-10   7.41082778364660e-13   3.54926695513226e-16   7.47765249360143e-20   2.01959481999583e-23   2.17547848426226e-27   2.12800965808295e-31   1.19143612627360e-35   5.36810956535092e-40   5.79532092995640e-44   3.41939185963974e-48   7.08017591469078e-52   3.25231311717123e-75  3.42652643097483e-145  2.11624897252787e-118   1.30417805996994e-65   2.14475088823571e-68   2.07154564736458e-71   1.83591112623445e-74   2.56637026309712e-77   1.60961553751980e-80   9.19840026203236e-84   1.66452335007610e-87   1.16941783962782e-91   3.67756654407419e-95   2.95092042826841e-99  3.10673062767434e-103  1.64564793275113e-107  4.60579899242162e-111  2.16339232794646e-115  7.22616977322153e-120  2.69413374330751e-124  1.56833066497423e-128  3.33942980510832e-133  2.77587719511729e-138  1.14327436582869e-142  1.39631518852393e-147  5.41872712352038e-152  8.90945908619487e-157  2.89389647126925e-161  4.89991091131875e-166  1.07288948355909e-170  1.34680479629111e-175  1.62795914143750e-124  5.78770214785670e-111  5.89896449852791e-114  2.84566837347582e-118  1.10226263521014e-119  3.15332391855934e-119  3.38191356930954e-118  1.22138564408703e-116  5.22673508893479e-117  4.35002528045934e-118  1.58498285283674e-120  3.89446685331110e-122  1.49782370688601e-123  6.37803969303618e-123  6.50538294264530e-124  1.85508685441443e-129  6.16706667551763e-134  5.74172155110371e-134  2.97762025670978e-132  1.01935134859711e-131  2.44404967209029e-135  1.02437671853020e-138  5.13195408689722e-139  1.70881508245119e-138  5.36377900000658e-142  1.07873367775577e-142  2.57891122171817e-139  1.65964640857573e-138  1.42784987415070e-137  1.36707389990048e-137  1.24215038253204e-137  2.88653546348326e-137  1.25293198164899e-136  1.32808940292832e-143  2.32113261548780e-146  1.29029834704841e-148  1.94068946499467e-150  6.04412123855885e-156  2.84113535460612e-160  5.68490948232693e-165  1.93754230849770e-171  1.88061680835912e-178  8.36901291203101e-182  5.21766840997563e-181  5.88094263507754e-185  3.08478646509006e-187  9.85577848154224e-188  9.15324781527259e-183  3.76663523685727e-180  1.19237109601712e-183  3.11291326129449e-185  6.27297890641040e-183  1.50130411873783e-180  7.79083550120854e-179  3.39630212476299e-182  3.63750391280268e-182  4.30579989007902e-183  2.20325534971664e-185  4.24639336710097e-186  9.59789163305882e-188  5.75597409680270e-190  1.70453811316430e-201  8.47357827580256e-215  8.39242894630247e-227  2.31122937729594e-233  1.06365912901461e-217  7.41319195361049e-173  1.38090706574122e-132   4.14697407188763e-87   6.67320809160389e-24   2.97973026701445e-13   1.84063110066840e-04   1.86034117606842e-24  8.45405644248208e-131  4.97516537952650e-254  8.79436849597419e-322   0.00000000000000e+00   0.00000000000000e+00   0.00000000000000e+00   0.00000000000000e+00   0.00000000000000e+00   0.00000000000000e+00   0.00000000000000e+00   0.00000000000000e+00   0.00000000000000e+00  3.05510432762393e-319  2.90701771473402e-309  8.93650506347458e-298  4.55660350872118e-292  7.32536184962379e-287  4.88106417449327e-282  3.87982925422806e-280  2.13749224261563e-279  2.91513300722114e-274  6.95846639700515e-273  1.82221510766701e-275  8.96967758987292e-272  7.41889388610577e-272  1.23073640929825e-275  4.32994739250253e-274  8.34694371625436e-281  1.79546708902892e-285  9.70266304251964e-275  9.28548814983433e-278  3.07014495156354e-280  7.98225350459968e-283  3.13626717923048e-283  7.54318391830974e-283  2.27783390174504e-288  5.85837757638068e-287  4.33189583929229e-292  9.61220489059223e-292  2.83399213051074e-297  4.39746139095328e-302  1.69765214560609e-304  3.07186971821094e-303  9.40280469642457e-309  1.37392517959313e-310  2.98475476447761e-314  1.95943174307376e-317  3.26083326255223e-322   0.00000000000000e+00   0.00000000000000e+00   0.00000000000000e+00   0.00000000000000e+00   0.00000000000000e+00   0.00000000000000e+00   0.00000000000000e+00   0.00000000000000e+00   0.00000000000000e+00   0.00000000000000e+00   0.00000000000000e+00   0.00000000000000e+00   0.00000000000000e+00   0.00000000000000e+00   0.00000000000000e+00   0.00000000000000e+00   0.00000000000000e+00   0.00000000000000e+00   0.00000000000000e+00   0.00000000000000e+00   0.00000000000000e+00  2.85655231554714e-246   3.62501428095310e-96   1.65747708365158e-16   5.33682243944450e-15   2.47960386889228e-13   5.65470700606358e-12   1.22439454087990e-10   1.26104290985208e-08   9.15832775440009e-07   2.31616973234925e-05   3.27984501896202e-06   8.22158146132572e-08   5.18038479689264e-12   1.03241456260411e-16   9.74092456525853e-22   2.81146320418790e-26   7.10728597351293e-31   2.09272131174343e-35   7.08584456069290e-40   4.33225922915219e-44   7.21009475403698e-48   4.99918910024503e-52   6.91417449274063e-56  3.29041658556607e-100  3.34177477681039e-173   1.36249101677682e-95   1.05254865860727e-69   8.56159518930107e-73   3.19562888284246e-76   8.05688859855588e-80   1.88794381936502e-83   2.69789724293746e-87   6.44084360944722e-91   4.57304037478298e-95   1.45657173411678e-99  1.26211261629484e-103  2.62649351824690e-108  6.11020654848530e-113  6.49146600851076e-118  3.64847217033721e-122  2.96744043215956e-127  1.59543287167925e-132  8.89035587454829e-138  1.63360757761012e-142  1.20751965108669e-147  1.12262125031480e-153  8.04002110864933e-159  2.94511636484392e-164  2.71296901425196e-169  2.66185443850507e-174  1.69803333676743e-179  1.69079163467266e-184  1.96705977118111e-189  2.27441191200334e-188  6.43818399494397e-110  1.01901894322291e-108  5.07721883976917e-110  7.14205606591258e-113  6.04016316926761e-114  3.64028762538209e-111  1.99150136863755e-113  5.19831808736855e-118  6.58559544229075e-121  2.38511512758080e-121  1.01688652920112e-118  7.43496530533894e-121  6.51249313900211e-126  1.41723107204413e-125  2.54770430113440e-124  1.72693096938366e-125  7.53205550250510e-128  1.00503198333860e-129  2.62412296768924e-130  6.00100137535939e-131  4.77583386019665e-133  1.51212859563523e-136  1.72040351140687e-136  6.36534722417205e-136  1.23612943442481e-139  2.42425140729005e-140  1.50593759496697e-139  3.82821024854530e-140  3.51086282564508e-140  5.28348566430047e-139  8.79901335318573e-135  5.91892814760199e-136  1.75235774750830e-139  1.01358811841186e-142  1.09696934544459e-145  2.51178734922218e-143  1.32869729200138e-144  1.06804539158904e-150  1.40203244996048e-152  2.93441950756802e-154  3.92352470838381e-157  2.44104056887939e-166  3.45689308465983e-171  4.53424938103460e-173  9.58089921821050e-176  1.38422619122849e-180  8.85956929157318e-182  1.68537838734881e-183  1.28643710762317e-186  1.02001619404913e-189  9.79200306072766e-192  2.39892970055907e-188  1.69956037385089e-187  9.18565394822236e-192  7.16132382493526e-196  3.55810962543983e-194  1.72363860035054e-192  1.55893493916032e-194  2.38058831370277e-195  4.28274921849522e-197  3.27590693498777e-195  1.24265270335480e-196  8.03872167267281e-199  5.54422634673747e-205  3.53935071177900e-218  1.19522650632616e-231  1.43019091283517e-257  5.02370388010444e-266  7.18184801998192e-247  7.27560314405438e-200  1.16300180064203e-140   6.28397997154327e-62   1.46428270374648e-02   9.99999999999845e-01   2.08175264352273e-42  1.77808660076241e-215   0.00000000000000e+00   0.00000000000000e+00   0.00000000000000e+00   0.00000000000000e+00   0.00000000000000e+00   0.00000000000000e+00   0.00000000000000e+00   0.00000000000000e+00   0.00000000000000e+00   0.00000000000000e+00   0.00000000000000e+00   0.00000000000000e+00   0.00000000000000e+00   0.00000000000000e+00   0.00000000000000e+00   0.00000000000000e+00   0.00000000000000e+00   0.00000000000000e+00   0.00000000000000e+00   0.00000000000000e+00   0.00000000000000e+00   0.00000000000000e+00   0.00000000000000e+00   0.00000000000000e+00   0.00000000000000e+00   0.00000000000000e+00   0.00000000000000e+00   0.00000000000000e+00   0.00000000000000e+00   0.00000000000000e+00   0.00000000000000e+00   0.00000000000000e+00   0.00000000000000e+00   0.00000000000000e+00   0.00000000000000e+00   0.00000000000000e+00   0.00000000000000e+00   0.00000000000000e+00   0.00000000000000e+00   0.00000000000000e+00   0.00000000000000e+00   0.00000000000000e+00   0.00000000000000e+00   0.00000000000000e+00   0.00000000000000e+00   0.00000000000000e+00   0.00000000000000e+00   0.00000000000000e+00   0.00000000000000e+00   0.00000000000000e+00   0.00000000000000e+00   0.00000000000000e+00   0.00000000000000e+00   0.00000000000000e+00   0.00000000000000e+00   0.00000000000000e+00   0.00000000000000e+00   0.00000000000000e+00   0.00000000000000e+00   0.00000000000000e+00   0.00000000000000e+00   0.00000000000000e+00   0.00000000000000e+00   0.00000000000000e+00   0.00000000000000e+00   0.00000000000000e+00   0.00000000000000e+00   0.00000000000000e+00   0.00000000000000e+00   0.00000000000000e+00   0.00000000000000e+00  5.36978923744064e-191   7.65907877757550e-52   9.99956388342217e-01   3.16739034990755e-05   2.13889527841030e-06   8.50998612497290e-08   2.21982495931280e-10   4.58147217049270e-13   9.81145503460976e-17   8.97803209847027e-21   1.22218174181269e-24   3.82427974992856e-29   6.27552609319204e-34   6.28051107715149e-39   9.22042902618287e-44   1.48271900663600e-48   5.60427652877665e-54   6.00143639841580e-59   6.83422315806660e-64   8.95654515457560e-69   3.45541507112174e-73   1.01945183277954e-77   8.96387589336665e-82  1.55742192102329e-176  1.37166219062467e-161   1.14809958112760e-87   2.66396029779413e-89   2.35578797743820e-91   1.24187694582141e-93   8.32968141461229e-96   3.41460824392450e-98  2.30673220594899e-100  4.85805435520982e-103  4.04654070827787e-106  2.61803802199688e-108  1.61853035945846e-111  1.03424297840209e-114  3.67398516642757e-118  2.09745978662858e-121  9.52029404178692e-126  4.84286358768679e-130  3.36299842896185e-134  3.31900107892913e-138  1.04818609748054e-142  3.45094602188696e-148  7.77795864595397e-153  7.09032392617763e-158  1.55654105391711e-162  1.13099780980000e-167  9.89490407691907e-173  6.26123859043543e-178  6.37123479552861e-183  2.09086118143862e-188  1.05165293191819e-159  6.05908539634347e-107  7.19704689288030e-107  1.70115602140537e-115  1.22002963951635e-111  2.61630644776460e-112  5.67383248957140e-114  2.35260630818171e-116  1.21910359815430e-123  1.31306721583703e-126  3.94008683087828e-120  7.01186854906551e-123  1.34885079535698e-123  8.67426908811665e-122  1.01253837408337e-123  3.60303804235350e-124  1.64739178832935e-129  1.16960945473329e-128  2.47433876325440e-128  5.15700090430836e-132  9.36587743534368e-136  1.32931314462879e-136  1.18027952384712e-134  7.68940330112912e-136  1.90719616283687e-138  7.70360332453151e-141  5.01904214941662e-142  3.93166268104446e-140  7.34077869030447e-139  5.00884942787321e-138  3.81149531300173e-135  1.60680800686330e-134  9.98695611999501e-137  1.37510668076513e-140  6.49468492775567e-143  5.52499688027442e-141  7.94779399136958e-144  8.71219093175443e-148  2.26946913156887e-149  5.36757945409261e-152  2.06089350245077e-157  3.30593647271424e-168  1.62246884225976e-172  2.22482246482470e-173  1.33093119368049e-175  5.41492764554435e-182  3.16661292699696e-183  1.55384115540220e-181  8.64121927309013e-182  2.67762580933032e-185  1.14573863305122e-190  4.07925180251854e-192  2.28240844197414e-193  1.64220715886022e-195  6.19930100663913e-198  1.23477794317293e-199  5.46523770897465e-197  4.58607638056162e-202  7.87578698912745e-201  1.08887419358335e-200  5.70679177824373e-194  1.16706034456214e-195  5.86953292916548e-198  6.84991199755907e-194  1.96671996746367e-191  1.45404317907703e-192  4.55498945385524e-201  6.86362350175875e-212  4.96975297836166e-229  3.53635989694693e-252  1.76427721712898e-251  3.89242700559397e-212  6.45282275135068e-146   6.89108964829743e-63   6.80412940421851e-03   9.99999890250269e-01   7.86022357537556e-67  3.45935479826485e-182  2.52646619081281e-244   0.00000000000000e+00   0.00000000000000e+00   0.00000000000000e+00   0.00000000000000e+00   0.00000000000000e+00   0.00000000000000e+00   0.00000000000000e+00   0.00000000000000e+00   0.00000000000000e+00   0.00000000000000e+00   0.00000000000000e+00   0.00000000000000e+00   0.00000000000000e+00   0.00000000000000e+00   0.00000000000000e+00   0.00000000000000e+00   0.00000000000000e+00   0.00000000000000e+00   0.00000000000000e+00   0.00000000000000e+00   0.00000000000000e+00   0.00000000000000e+00   0.00000000000000e+00   0.00000000000000e+00   0.00000000000000e+00   0.00000000000000e+00   0.00000000000000e+00   0.00000000000000e+00   0.00000000000000e+00   0.00000000000000e+00   0.00000000000000e+00   0.00000000000000e+00   0.00000000000000e+00   0.00000000000000e+00   0.00000000000000e+00   0.00000000000000e+00   0.00000000000000e+00   0.00000000000000e+00   0.00000000000000e+00   0.00000000000000e+00   0.00000000000000e+00   0.00000000000000e+00   0.00000000000000e+00   0.00000000000000e+00   0.00000000000000e+00   0.00000000000000e+00   0.00000000000000e+00   0.00000000000000e+00   0.00000000000000e+00   0.00000000000000e+00   0.00000000000000e+00   0.00000000000000e+00   0.00000000000000e+00   0.00000000000000e+00   0.00000000000000e+00   0.00000000000000e+00   0.00000000000000e+00   0.00000000000000e+00   0.00000000000000e+00   0.00000000000000e+00   0.00000000000000e+00   0.00000000000000e+00   0.00000000000000e+00   0.00000000000000e+00   0.00000000000000e+00   0.00000000000000e+00   0.00000000000000e+00   0.00000000000000e+00   0.00000000000000e+00  7.41098468761870e-323  1.35067976091409e-115   3.02612625824618e-20   1.10044315036078e-18   7.76711801808325e-17   6.64899711626349e-15   1.06762454513057e-13   5.52601455833654e-13   1.70066084604897e-12   5.82161765556596e-12   4.66551095231919e-11   4.42826036026620e-10   4.35918368246980e-09   1.34139155794322e-07   8.15851423214816e-06   1.15716745225450e-06   4.50267324429488e-08   1.98349493271535e-11   2.65589135681275e-15   1.23054388432923e-19   7.87629656828890e-24   4.33849286709797e-28   6.55128441865624e-32   2.89697075771417e-74  9.83383112129849e-183   1.13880101103543e-76   6.19832547587235e-47   2.61161027097323e-50   5.27910639780532e-54   1.58229040126436e-57   7.61371165221890e-61   1.55922735219856e-64
   0.00000000000000e+00   0.00000000000000e+00   1.00000000000000e+00   0.00000000000000e+00   0.00000000000000e+00   0.00000000000000e+00   0.00000000000000e+00   0.00000000000000e+00   0.00000000000000e+00   0.00000000000000e+00   0.00000000000000e+00   0.00000000000000e+00   0.00000000000000e+00   0.00000000000000e+00   0.00000000000000e+00   0.00000000000000e+00   0.00000000000000e+00   0.00000000000000e+00   0.00000000000000e+00   0.00000000000000e+00   0.00000000000000e+00   0.00000000000000e+00   0.00000000000000e+00   0.00000000000000e+00   0.00000000000000e+00   0.00000000000000e+00   0.00000000000000e+00   0.00000000000000e+00   0.00000000000000e+00   0.00000000000000e+00   0.00000000000000e+00   0.00000000000000e+00   0.00000000000000e+00   0.00000000000000e+00   0.00000000000000e+00   0.00000000000000e+00   0.00000000000000e+00   0.00000000000000e+00   0.00000000000000e+00   0.00000000000000e+00   0.00000000000000e+00   0.00000000000000e+00   0.00000000000000e+00   0.00000000000000e+00   0.00000000000000e+00   0.00000000000000e+00   0.00000000000000e+00   0.00000000000000e+00   0.00000000000000e+00   0.00000000000000e+00   0.00000000000000e+00   0.00000000000000e+00   0.00000000000000e+00   0.00000000000000e+00  3.10695802100681e-104  1.32289461037822e-107   0.00000000000000e+00  1.28540627917192e-116  1.04534440838022e-121  3.77206356704492e-124  4.74189786926727e-128   0.00000000000000e+00   0.00000000000000e+00  2.71982805318312e-131  4.57439191499776e-133  3.62934834507569e-135  1.99915931240764e-131  2.41867866340133e-131  1.13276948913105e-133  2.23607854894347e-130  7.17085496746836e-132  1.48609872184693e-133  6.27200291779656e-136  8.21708749497526e-137  5.80118724377857e-137  1.48624687313093e-138  1.41684885667986e-138  2.23300013918412e-143  1.52843905997434e-141  1.91209919726095e-140  1.32741034034613e-145  4.84333385692119e-165  3.27938496847831e-185  1.35147594564581e-212  7.67856509553913e-210  1.88812863933056e-144   3.50771560856567e-42   8.30934670571476e-15   1.00000000000000e+00   3.21653939882325e-39  2.74450183954828e-195  2.27992276627187e-299   0.00000000000000e+00   0.00000000000000e+00   0.00000000000000e+00   0.00000000000000e+00   0.00000000000000e+00   0.00000000000000e+00   0.00000000000000e+00   0.00000000000000e+00   0.00000000000000e+00   0.00000000000000e+00   0.00000000000000e+00   0.00000000000000e+00   0.00000000000000e+00   0.00000000000000e+00   0.00000000000000e+00   0.00000000000000e+00   0.00000000000000e+00   0.00000000000000e+00   0.00000000000000e+00   0.00000000000000e+00   0.00000000000000e+00   0.00000000000000e+00   0.00000000000000e+00   0.00000000000000e+00   0.00000000000000e+00   0.00000000000000e+00   0.00000000000000e+00   0.00000000000000e+00   0.00000000000000e+00   0.00000000000000e+00   0.00000000000000e+00   0.00000000000000e+00   0.00000000000000e+00   0.00000000000000e+00   0.00000000000000e+00   0.00000000000000e+00   0.00000000000000e+00   0.00000000000000e+00   0.00000000000000e+00   0.00000000000000e+00   0.00000000000000e+00   0.00000000000000e+00   0.00000000000000e+00   0.00000000000000e+00   0.00000000000000e+00   0.00000000000000e+00   0.00000000000000e+00   0.00000000000000e+00   0.00000000000000e+00   0.00000000000000e+00   0.00000000000000e+00   0.00000000000000e+00   0.00000000000000e+00   0.00000000000000e+00   0.00000000000000e+00   0.00000000000000e+00   0.00000000000000e+00   0.00000000000000e+00   0.00000000000000e+00   0.00000000000000e+00   0.00000000000000e+00   0.00000000000000e+00   0.00000000000000e+00   0.00000000000000e+00   0.00000000000000e+00   0.00000000000000e+00   0.00000000000000e+00   0.00000000000000e+00   0.00000000000000e+00   0.00000000000000e+00  2.35397295409027e-222   1.74512332834228e-53   9.99999992959127e-01   1.12917719766901e-09   6.01449599727139e-09   4.35653788155354e-08   2.27150084604127e-08   1.24031282237518e-09   1.64523491793009e-11   1.86722006958943e-13   9.08051298009917e-16   3.89040937816857e-19   3.37627969904731e-23   1.51853050035447e-27   5.60162966141462e-32   6.11863507210060e-37   1.18319386059063e-42   5.06450603003018e-48   1.98916949686881e-53   3.78636885992875e-59   1.15477058956976e-64   6.26131108517842e-69   2.21323971984529e-75  5.36026946705896e-160  9.98956296098172e-174   1.09106789339034e-80   5.51539189917641e-83   1.14521286797635e-85   1.72595869747771e-88   4.78589988860991e-91   9.94931707664418e-94   6.43697724549152e-96   2.01187759815981e-98  3.30410649088564e-101  1.80477120384712e-103  1.87026820591310e-106  2.66810172622860e-109  2.67153612090145e-112  1.18413443358216e-114  4.04603431456965e-118  7.60652376250849e-122  1.82827685166650e-125  4.39236098869265e-129  3.08180137217169e-133  1.62897739235267e-138  1.00667665226646e-142  2.07412076602436e-147  2.91847701398168e-152  3.50721802644248e-157  9.34691532955696e-162  1.79096308061107e-166  1.62314894014850e-171  5.00801422843413e-177  2.17917721279487e-157  9.27333052868781e-102  1.74140907140415e-103  8.76402031794817e-112  1.19453672966105e-106  4.70774226533028e-105  1.21366961404950e-106  3.17836220769621e-111  4.47253077174113e-116  7.57456224272826e-115  2.02316031315543e-114  2.85002081380867e-117  1.67954463499321e-116  4.06595514297491e-116  1.18346837630296e-117  1.63405684283141e-118  3.92852782275558e-124  2.77261290582452e-125  2.69751501862016e-124  1.21788359109977e-126  1.94762878119424e-129  1.02562074687788e-129  2.73851918232127e-132  3.32320932685373e-134  1.65706658191219e-136  2.05620411808712e-135  6.28837517476543e-136  1.66358001349463e-134  2.84462159095814e-137  2.22776285947836e-135  8.47543311798777e-136  9.95575526792456e-135  6.46302572849592e-136  1.31753036490102e-136  9.06970055047597e-137  3.33873268998766e-139  4.29036333136912e-142  1.20516339882594e-146  2.82531487708236e-145  7.40089261332510e-144  7.36768089010404e-147  6.84657240961855e-152  8.05604027868014e-154  7.83555792134546e-159  4.56956062339113e-165  1.23691457556624e-170  1.29522490462486e-172  1.70650272368603e-174  2.02825712154616e-179  7.94006927309692e-182  4.13229140685413e-183  7.81980444291987e-187  3.30851447395892e-187  1.78747273798118e-188  2.03558093568120e-189  9.09396437669525e-188  1.38137089419494e-188  3.54186616496248e-187  6.48114309518333e-187  6.84765822626400e-188  4.32384441712725e-193  2.18200287608491e-195  2.16661987758448e-195  5.32422561241645e-191  1.00742989067635e-189  7.16772921642705e-193  6.29483879825892e-200  2.71940371575908e-204  2.07248639643737e-214  8.44824502952707e-227  2.11100999882421e-252  1.98251260512256e-268  4.19048082816409e-268  1.79033594801840e-247  1.13200697378691e-207  3.19397560396768e-149   2.94006729846065e-55   5.73534609059215e-01   4.91634701230563e-21   1.18074653646218e-15   3.14906062023431e-07  5.52599825376946e-106  1.90902265015753e-227  3.18779413490203e-312   0.00000000000000e+00   0.00000000000000e+00   0.00000000000000e+00   0.00000000000000e+00   0.00000000000000e+00   0.00000000000000e+00   0.00000000000000e+00   0.00000000000000e+00   0.00000000000000e+00   0.00000000000000e+00   0.00000000000000e+00   0.00000000000000e+00   0.00000000000000e+00   0.00000000000000e+00   0.00000000000000e+00   0.00000000000000e+00  9.69406203705110e-320  2.22389072574491e-315  1.96938138032875e-315  2.01712380237248e-314  1.28610464338441e-313  1.39580160249405e-306  6.03370301511755e-305  9.79260232616860e-308  4.79069905100207e-307  3.50904672549091e-314  7.26582820087054e-318  2.06696809528498e-318   0.00000000000000e+00  1.21466187249764e-317  1.08694442085074e-322  6.81810591260920e-322   0.00000000000000e+00   0.00000000000000e+00   0.00000000000000e+00   0.00000000000000e+00   0.00000000000000e+00   0.00000000000000e+00   0.00000000000000e+00   0.00000000000000e+00   0.00000000000000e+00   0.00000000000000e+00   0.00000000000000e+00   0.00000000000000e+00   0.00000000000000e+00   0.00000000000000e+00   0.00000000000000e+00   0.00000000000000e+00   0.00000000000000e+00   0.00000000000000e+00   0.00000000000000e+00   0.00000000000000e+00   0.00000000000000e+00   0.00000000000000e+00   0.00000000000000e+00   0.00000000000000e+00   0.00000000000000e+00   0.00000000000000e+00   0.00000000000000e+00   0.00000000000000e+00   0.00000000000000e+00   0.00000000000000e+00   0.00000000000000e+00   0.00000000000000e+00   0.00000000000000e+00   0.00000000000000e+00  1.27974135172340e-308  5.90745329874292e-133   1.79681081791939e-24   7.63430246071732e-10   1.42948320927851e-09   3.03755157551021e-08   2.89814645338357e-06   8.74413349514550e-05   3.43236009130691e-05   3.70219661761363e-06   2.35089753718662e-07   6.63218721884172e-10   6.23965300966987e-13   2.02957451284523e-16   6.03550118117834e-20   1.68966888806843e-23   1.73258694363366e-27   1.73730712600863e-31   1.01042415312273e-35   4.48577339653844e-40   4.41113817657094e-44   2.93123271136869e-48   6.13189586495822e-52   2.78844826389086e-75  2.95903842359156e-145  1.57288833133086e-118   1.05423617413342e-65   1.92400625098928e-68   1.85008361841736e-71   1.99465701291600e-74   2.82370270298692e-77   1.71572492743578e-80   9.01363225625189e-84   1.55093355020454e-87   1.11603454151204e-91   3.34163254210909e-95   2.55720046726771e-99  2.62680846680994e-103  1.42913384356972e-107  4.12835000326961e-111  1.89332122175918e-115  5.93185623465939e-120  2.24161819548036e-124  1.33611927994684e-128  2.92688592779189e-133  2.50896596078264e-138  8.94636692992412e-143  1.24788969436273e-147  4.82419968532966e-152  7.61203518201007e-157  2.45531872619376e-161  3.80623303857881e-166  9.04467120882236e-171  1.13128552104448e-175  4.47401622364952e-125  1.57037751677690e-111  9.80669353040508e-115  3.90163273177012e-119  1.12337431751271e-120  4.33362916007735e-120  5.15259630858690e-119  2.81378406582121e-117  6.41282892235547e-118  6.02601579313635e-119  1.67202307709049e-121  5.15019573892302e-123  5.40442905228736e-124  1.89657003843601e-123  8.26588317762394e-125  1.42251489254283e-130  7.83261905520166e-135  1.66929124425181e-134  5.88260057702242e-133  1.09392167377438e-132  2.76794120560198e-136  2.73592985646249e-139  6.77273979473731e-140  1.06666982230746e-139  8.19999837718148e-143  1.73070307974052e-143  4.80837596582095e-140  3.29210547523703e-139  3.18221486640082e-138  3.98542118697416e-138  3.78993621463059e-138  5.55941268692772e-138  2.36968784643771e-137  2.71217871849772e-144  5.77279878321854e-147  2.12159836074799e-149  4.03715034428218e-151  1.63153073297962e-156  1.74247763130806e-160  8.33322269712304e-166  2.25267700909908e-172  9.97396653327256e-179  2.57258287999212e-182  1.16820325148453e-181  3.40417551096819e-186  5.17033806128825e-188  4.96923284338245e-188  2.65261700739168e-183  3.76661552928207e-181  1.11411231503794e-184  5.18905285736543e-186  1.83278777815990e-183  1.66212237782841e-181  1.24746269138820e-179  1.01262421874524e-182  5.22947930302017e-183  6.57382286632180e-184  6.79392169444964e-186  4.69283807671318e-186  6.99245529701302e-188  4.39048279683979e-190  4.93929434543110e-202  8.54717282046938e-217  6.03694174118988e-230  8.97191346603146e-241  4.78309385294140e-223  1.44748454513568e-179  1.63146043068166e-118   6.51635293092541e-35   3.14985981212104e-03   5.42638208738099e-24   2.24968256896963e-06   1.41315355514515e-23  2.53808937475189e-125  1.26689876826451e-252  6.57107308968858e-322   0.00000000000000e+00   0.00000000000000e+00   0.00000000000000e+00   0.00000000000000e+00   0.00000000000000e+00   0.00000000000000e+00   0.00000000000000e+00   0.00000000000000e+00   0.00000000000000e+00  4.78502577997247e-320  5.48256489606427e-310  1.62185198216385e-298  9.18899224690065e-293  1.33528609160568e-287  6.15682036770033e-283  5.34210708149198e-281  6.93794077525508e-280  3.09188895679338e-275  6.90310563143717e-274  1.80679597168498e-276  1.81192259591653e-272  1.72513078003507e-272  1.46295883589184e-276  4.87632184061373e-275  1.64885251834851e-281  2.51254968663376e-286  1.59651112215189e-275  1.04309353665154e-278  6.43750724227930e-281  1.86503822990703e-283  6.49545802263000e-284  2.22166111590544e-283  7.17131107990575e-289  1.41213947838102e-287  6.40753347146864e-293  1.48103419354703e-292  6.61628524042784e-298  1.03169583116614e-302  2.84744614455912e-305  3.85184842479727e-304  1.60063172124930e-309  7.54363777101216e-311  2.11849769354575e-314  6.81564546569291e-318  1.58101006669199e-322   0.00000000000000e+00   0.00000000000000e+00   0.00000000000000e+00   0.00000000000000e+00   0.00000000000000e+00   0.00000000000000e+00   0.00000000000000e+00   0.00000000000000e+00   0.00000000000000e+00   0.00000000000000e+00   0.00000000000000e+00   0.00000000000000e+00   0.00000000000000e+00   0.00000000000000e+00   0.00000000000000e+00   0.00000000000000e+00   0.00000000000000e+00   0.00000000000000e+00   0.00000000000000e+00   0.00000000000000e+00   0.00000000000000e+00  6.05917113921712e-246   1.08123712494282e-95   2.65182972239680e-15   2.04938478882773e-13   6.83465942550471e-12   7.37006296424214e-10   1.06277945117436e-07   9.36358862673043e-06   1.82491875526216e-04   2.82939529330599e-05   2.97170651615189e-06   9.70158175552176e-08   4.88295691630310e-12   7.39053183839355e-17   9.27639379111233e-22   3.19932968519339e-26   4.98029649276885e-31   1.45705428786153e-35   6.06052512660700e-40   3.91308519573560e-44   6.48022562611244e-48   3.07032810945521e-52   5.69123285947572e-56  2.83292970071893e-100  2.92218610384360e-173   1.01096804396263e-95   8.38116076709378e-70   7.52372875471182e-73   2.75498107342978e-76   6.88565240503584e-80   1.62413879197086e-83   2.44585022331596e-87   6.35569754354783e-91   4.16715785960926e-95   1.37355161276133e-99  1.13523847887314e-103  2.27543665498083e-108  5.23458138689243e-113  5.72323063218537e-118  3.28464302596770e-122  2.53388612887396e-127  1.31671120983278e-132  6.28497863819476e-138  1.43786933303683e-142  1.05071096827025e-147  9.01212538085802e-154  6.47036688121637e-159  2.60216826656054e-164  2.37573927544036e-169  2.33209945739739e-174  1.35889428139091e-179  1.42348121252183e-184  1.69481446878169e-189  3.46162987860852e-189  1.19938843712762e-110  1.40454950173901e-109  4.15128126762907e-111  1.25531251563206e-113  1.80741793505877e-114  7.84741606675552e-112  2.89326973741641e-114  3.40937021224660e-119  1.38193878077016e-121  1.11348717421197e-121  1.04581233217655e-119  7.62505279259974e-122  9.54052564118968e-127  4.07833408341510e-126  3.40954203426274e-125  1.96500283718741e-126  1.07127496963202e-128  2.17089642535826e-130  4.63555739067674e-131  5.24912448120351e-132  5.99935450125019e-134  3.46487706866701e-137  2.13675531518028e-137  6.22704533884777e-137  1.74828839347990e-140  3.51610206351458e-141  2.12760980157851e-140  6.33093136947480e-141  1.19204209741676e-140  1.55625500406025e-139  1.98412101893847e-135  1.16148273216217e-136  3.49080104430616e-140  3.64115023130269e-143  3.37463792754512e-146  5.27527066126697e-144  2.89362446730542e-145  2.87787917339027e-151  4.87558678442576e-153  3.93318732513857e-155  5.62073258577080e-158  3.66768399198597e-167  6.72544402935678e-172  6.13344714477577e-174  1.54793340546057e-176  3.02112726825224e-181  2.32177355091040e-182  2.64384473251720e-184  1.01433248278831e-187  1.47711072799009e-190  3.13078762936569e-192  8.09141002875736e-189  1.41179940467262e-188  8.73136563547641e-193  1.74581970341864e-196  6.66146356808744e-195  2.21272624757107e-193  2.21751618068920e-195  4.32381407503562e-196  1.85496418441362e-197  4.50314364196628e-195  2.84725745646361e-195  5.37291530733121e-198  1.60835853738732e-202  1.23175823355908e-217  1.15471004265459e-234  8.09934608968984e-262  2.38860924793694e-271  1.39615843675750e-256  1.80918401077573e-208  6.58780977585139e-112   1.01948825129937e-21   1.54931485750879e-13   1.00000000000000e+00   1.45763585825068e-56  5.87652627643525e-228   0.00000000000000e+00   0.00000000000000e+00   0.00000000000000e+00   0.00000000000000e+00   0.00000000000000e+00   0.00000000000000e+00   0.00000000000000e+00   0.00000000000000e+00   0.00000000000000e+00   0.00000000000000e+00   0.00000000000000e+00   0.00000000000000e+00   0.00000000000000e+00   0.00000000000000e+00   0.00000000000000e+00   0.00000000000000e+00   0.00000000000000e+00   0.00000000000000e+00   0.00000000000000e+00   0.00000000000000e+00   0.00000000000000e+00   0.00000000000000e+00   0.00000000000000e+00   0.00000000000000e+00   0.00000000000000e+00   0.00000000000000e+00   0.00000000000000e+00   0.00000000000000e+00   0.00000000000000e+00   0.00000000000000e+00   0.00000000000000e+00   0.00000000000000e+00   0.00000000000000e+00   0.00000000000000e+00   0.00000000000000e+00   0.00000000000000e+00   0.00000000000000e+00   0.00000000000000e+00   0.00000000000000e+00   0.00000000000000e+00   0.00000000000000e+00   0.00000000000000e+00   0.00000000000000e+00   0.00000000000000e+00   0.00000000000000e+00   0.00000000000000e+00   0.00000000000000e+00   0.00000000000000e+00   0.00000000000000e+00   0.00000000000000e+00   0.00000000000000e+00   0.00000000000000e+00   0.00000000000000e+00   0.00000000000000e+00   0.00000000000000e+00   0.00000000000000e+00   0.00000000000000e+00   0.00000000000000e+00   0.00000000000000e+00   0.00000000000000e+00   0.00000000000000e+00   0.00000000000000e+00   0.00000000000000e+00   0.00000000000000e+00   0.00000000000000e+00   0.00000000000000e+00   0.00000000000000e+00   0.00000000000000e+00   0.00000000000000e+00   0.00000000000000e+00   0.00000000000000e+00  3.98907199651696e-195   7.29018863755161e-52   9.99965364102289e-01   3.20394103794915e-05   2.02332039606371e-06   9.05285754077945e-08   3.17926590734170e-10   3.59502399250073e-13   1.01279063901685e-16   1.03711978156801e-20   1.50774084974313e-24   3.36312626733592e-29   4.31818249080799e-34   6.50027734202920e-39   1.00651898749561e-43   1.34368756786661e-48   4.83160563240066e-54   5.32747893685368e-59   6.49977053216904e-64   7.13065019176666e-69   2.40324455457164e-73   8.72628391005808e-78   8.13416895618793e-82  1.32470843193395e-176  9.17822098829061e-162   9.55234766222166e-88   2.29641191685647e-89   2.02261918515712e-91   9.49018119180573e-94   7.01699671882446e-96   3.06069626679801e-98  2.01021625665967e-100  4.58111716403120e-103  3.86047042870322e-106  2.46242436817268e-108  1.55241508431270e-111  1.13407482172648e-114  3.81278148544488e-118  1.91806744934471e-121  8.52357036145066e-126  4.27255171493760e-130  3.34117484972994e-134  3.27162020818140e-138  9.17438357152582e-143  3.01735022532910e-148  6.52536627936947e-153  6.24925192461374e-158  1.39411296249015e-162  1.00349270722241e-167  8.88708007446209e-173  5.76371893597418e-178  5.45967977872424e-183  1.78688120282346e-188  3.76554784999534e-160  6.05834577227996e-108  6.94914560881731e-108  2.87188493829253e-116  1.98344495119870e-112  1.01433812206767e-112  1.27199347814477e-114  1.59692076721795e-117  2.33941574867469e-124  3.27767393188856e-127  3.82399533533499e-121  1.14442704306688e-123  2.25342044618568e-124  2.23653383136077e-122  1.03252411486454e-124  3.70621901474805e-125  3.28833714932469e-130  3.79390540900585e-129  2.68694499857310e-129  3.61774939552289e-133  1.36770058615451e-136  2.70050228870372e-137  2.25665663716948e-135  8.42444332500780e-137  1.64376508050224e-139  1.00259811739035e-141  8.46473829037940e-143  6.74284912725929e-141  2.17233552973291e-139  1.54335315358273e-138  9.01949311444458e-136  3.02297933200274e-135  2.51247568465920e-137  4.86789654709922e-141  1.73719938425161e-143  1.10504113015347e-141  2.53930828201424e-144  2.74999048127162e-148  6.32035062370500e-150  8.22788045660716e-153  1.96672859806015e-158  5.68605517718701e-169  4.16627193515701e-173  2.80078309026846e-174  1.09399327494221e-176  7.18257716286296e-183  8.66703322404842e-184  4.81986270191082e-182  1.10447917781443e-182  5.93264520615093e-186  2.12615432504347e-191  9.00311219758113e-193  3.35835531281124e-194  2.52667315982927e-196  2.67007461716355e-198  2.82264643133422e-200  9.03461585086316e-198  2.92770738078387e-203  1.35262125106173e-201  4.81648325133852e-201  3.46006068270136e-195  9.40361760770924e-197  2.09925839805456e-198  1.29499038861370e-193  5.73544938591927e-190  1.85137204404077e-191  1.26794512708682e-199  7.17691299668954e-212  4.35772806776973e-234  1.99748452884277e-257  4.82012682384637e-261  7.08482190480170e-221  8.54785504701659e-120   3.84411531092676e-29   1.09749730338331e-07   9.98585217303659e-01   1.49710678942624e-84  1.19932076569554e-179  5.25184853349694e-245   0.00000000000000e+00   0.00000000000000e+00   0.00000000000000e+00   0.00000000000000e+00   0.00000000000000e+00   0.00000000000000e+00   0.00000000000000e+00   0.00000000000000e+00   0.00000000000000e+00   0.00000000000000e+00   0.00000000000000e+00   0.00000000000000e+00   0.00000000000000e+00   0.00000000000000e+00   0.00000000000000e+00   0.00000000000000e+00   0.00000000000000e+00   0.00000000000000e+00   0.00000000000000e+00   0.00000000000000e+00   0.00000000000000e+00   0.00000000000000e+00   0.00000000000000e+00   0.00000000000000e+00   0.00000000000000e+00   0.00000000000000e+00   0.00000000000000e+00   0.00000000000000e+00   0.00000000000000e+00   0.00000000000000e+00   0.00000000000000e+00   0.00000000000000e+00   0.00000000000000e+00   0.00000000000000e+00   0.00000000000000e+00   0.00000000000000e+00   0.00000000000000e+00   0.00000000000000e+00   0.00000000000000e+00   0.00000000000000e+00   0.00000000000000e+00   0.00000000000000e+00   0.00000000000000e+00   0.00000000000000e+00   0.00000000000000e+00   0.00000000000000e+00   0.00000000000000e+00   0.00000000000000e+00   0.00000000000000e+00   0.00000000000000e+00   0.00000000000000e+00   0.00000000000000e+00   0.00000000000000e+00   0.00000000000000e+00   0.00000000000000e+00   0.00000000000000e+00   0.00000000000000e+00   0.00000000000000e+00   0.00000000000000e+00   0.00000000000000e+00   0.00000000000000e+00   0.00000000000000e+00   0.00000000000000e+00   0.00000000000000e+00   0.00000000000000e+00   0.00000000000000e+00   0.00000000000000e+00   0.00000000000000e+00   0.00000000000000e+00   0.00000000000000e+00  9.76603672030181e-116   2.51741349873632e-20   9.21536005191236e-19   7.25673652226320e-17   8.78073540756931e-15   1.49858962964491e-13   1.28793882809706e-12   7.61184629077618e-12   1.60282769614815e-10   3.14434319423486e-09   3.88340671234309e-08   1.26443000554543e-06   8.22625095342924e-05   1.19858121284585e-05   7.16254559359436e-07   4.55178275470581e-08   1.96465148493910e-11   3.17115088063617e-15   7.99007442054847e-20   5.74985429942343e-24   4.32457325492403e-28   6.87645067324591e-32   1.87777247276591e-74  6.79720739546285e-183   9.71594805361077e-77   5.35184577915911e-47   2.04703032881414e-50   4.23558663591350e-54   1.35593788427506e-57   6.77021604410713e-61
   0.00000000000000e+00   0.00000000000000e+00   0.00000000000000e+00   1.00000000000000e+00   0.00000000000000e+00   0.00000000000000e+00   0.00000000000000e+00   0.00000000000000e+00   0.00000000000000e+00   0.00000000000000e+00   0.00000000000000e+00   0.00000000000000e+00   0.00000000000000e+00   0.00000000000000e+00   0.00000000000000e+00   0.00000000000000e+00   0.00000000000000e+00   0.00000000000000e+00   0.00000000000000e+00   0.00000000000000e+00   0.00000000000000e+00   0.00000000000000e+00   0.00000000000000e+00   0.00000000000000e+00   0.00000000000000e+00   0.00000000000000e+00   0.00000000000000e+00   0.00000000000000e+00   0.00000000000000e+00   0.00000000000000e+00   0.00000000000000e+00   0.00000000000000e+00   0.00000000000000e+00   0.00000000000000e+00   0.00000000000000e+00   0.00000000000000e+00   0.00000000000000e+00   0.00000000000000e+00   0.00000000000000e+00   0.00000000000000e+00   0.00000000000000e+00   0.00000000000000e+00   0.00000000000000e+00   0.00000000000000e+00   0.00000000000000e+00   0.00000000000000e+00   0.00000000000000e+00   0.00000000000000e+00   0.00000000000000e+00   0.00000000000000e+00   0.00000000000000e+00   0.00000000000000e+00   0.00000000000000e+00   0.00000000000000e+00   0.00000000000000e+00  1.54069651149231e-106  5.18327220978590e-110   0.00000000000000e+00  2.18287623242109e-119  1.49702745601183e-124  2.48615777877503e-126  3.46727922360385e-130   0.00000000000000e+00   0.00000000000000e+00  3.00563956109850e-134  3.30667734528067e-135  6.03338105049888e-138  3.07031594423212e-134  3.15568850269819e-134  6.85916032963589e-136  3.62374297202721e-133  8.86024711584285e-135  2.37221228750676e-136  2.79945248321651e-138  7.53606606164638e-139  6.59480079375651e-140  9.64585932617739e-142  4.43618946162915e-140  2.33663263012579e-143  4.52342973966663e-142  2.09876346451130e-139  2.80836232188487e-148  6.44853931471238e-180  4.02031836744090e-217  1.06041653982482e-255  4.71845677294992e-230  1.87407387346286e-133   8.54215971295729e-76   1.80263163806110e-19   1.00000000000000e+00   2.91867977191971e-47  4.08087513224570e-192  5.95779836719200e-302   0.00000000000000e+00   0.00000000000000e+00   0.00000000000000e+00   0.00000000000000e+00   0.00000000000000e+00   0.00000000000000e+00   0.00000000000000e+00   0.00000000000000e+00   0.00000000000000e+00   0.00000000000000e+00   0.00000000000000e+00   0.00000000000000e+00   0.00000000000000e+00   0.00000000000000e+00   0.00000000000000e+00   0.00000000000000e+00   0.00000000000000e+00   0.00000000000000e+00   0.00000000000000e+00   0.00000000000000e+00   0.00000000000000e+00   0.00000000000000e+00   0.00000000000000e+00   0.00000000000000e+00   0.00000000000000e+00   0.00000000000000e+00   0.00000000000000e+00   0.00000000000000e+00   0.00000000000000e+00   0.00000000000000e+00   0.00000000000000e+00   0.00000000000000e+00   0.00000000000000e+00   0.00000000000000e+00   0.00000000000000e+00   0.00000000000000e+00   0.00000000000000e+00   0.00000000000000e+00   0.00000000000000e+00   0.00000000000000e+00   0.00000000000000e+00   0.00000000000000e+00   0.00000000000000e+00   0.00000000000000e+00   0.00000000000000e+00   0.00000000000000e+00   0.00000000000000e+00   0.00000000000000e+00   0.00000000000000e+00   0.00000000000000e+00   0.00000000000000e+00   0.00000000000000e+00   0.00000000000000e+00   0.00000000000000e+00   0.00000000000000e+00   0.00000000000000e+00   0.00000000000000e+00   0.00000000000000e+00   0.00000000000000e+00   0.00000000000000e+00   0.00000000000000e+00   0.00000000000000e+00   0.00000000000000e+00   0.00000000000000e+00   0.00000000000000e+00   0.00000000000000e+00   0.00000000000000e+00   0.00000000000000e+00   0.00000000000000e+00   0.00000000000000e+00  1.55125777085045e-222   1.53162939825134e-53   9.99999976933000e-01   1.41817125444963e-09   1.13323139425906e-08   6.80882549424437e-08   3.10511528071964e-08   2.16097324297482e-09   3.56168274322840e-11   6.19225880377459e-13   1.72979611223511e-15   4.10540504975434e-19   4.69069361587660e-23   2.59762673357969e-27   4.88288561557612e-32   4.61921263357189e-37   1.14370806515612e-42   5.64449763617283e-48   1.82076408656955e-53   2.85827615891375e-59   1.07793235268979e-64   6.14461826613651e-69   1.95166148326618e-75  3.66697017029531e-160  8.35512484454811e-174   9.92528828271322e-81   5.01284971523538e-83   1.02777033491246e-85   1.34642704355603e-88   4.17980544962861e-91   9.48108519381133e-94   6.55582519340576e-96   2.09191389502327e-98  3.18592803856816e-101  1.68157069896919e-103  2.08858368735511e-106  3.02916429444853e-109  2.87374720232781e-112  1.22231370565041e-114  4.61899599590246e-118  1.13986820522426e-121  1.91092725351708e-125  4.21134509832137e-129  3.66733452340262e-133  1.67488063923068e-138  1.02358021425521e-142  1.97578905725006e-147  3.09348810870099e-152  4.01863575556655e-157  1.00440676122254e-161  1.62078037507275e-166  1.66996938129986e-171  6.16954704387995e-177  3.76560832699690e-160  2.43979413562299e-105  8.06847759413648e-107  7.21439544425053e-114  1.84949091001138e-108  5.47577883835051e-108  6.83258466338192e-110  8.30581604397773e-114  2.40133117827873e-119  1.08286064053711e-117  1.68120430528029e-117  3.60682700422634e-120  1.69871276117916e-118  6.66328321046211e-119  5.98066701042393e-121  1.63103261088136e-121  1.50601882372760e-126  2.74985936768949e-128  7.52434559014028e-127  2.45661795534945e-129  1.08348877753648e-131  5.82758787121497e-133  2.24045760173796e-135  3.25722024754988e-137  4.13810323840178e-139  2.36472157514032e-138  9.85636921490740e-140  3.84221686712604e-138  1.68852618063103e-140  2.52425599396278e-138  7.04951220924607e-139  4.18376029477482e-138  1.08487884579768e-138  3.37889638522863e-139  2.16123854448814e-140  4.62459936872020e-143  8.96855315001072e-145  4.60111695887778e-149  2.30766039606765e-148  1.26654502797853e-146  9.28343874366925e-149  9.34975267305875e-154  7.70681859810642e-157  3.48719576304229e-162  3.76970081876557e-167  1.81007690982644e-172  2.41185127482529e-175  3.46206427797721e-177  1.06410533935636e-181  1.55114711392067e-184  1.16677523939965e-185  1.51998072273884e-189  6.01031638479269e-190  2.80752419628939e-191  5.35598041024142e-192  3.41808983462363e-190  1.78311933050324e-190  1.88918762048940e-189  2.04881815053366e-189  2.49027712268711e-191  5.38982371395809e-196  1.05943205711371e-197  6.71779063826780e-196  1.72288411225739e-191  1.29868601978448e-190  1.22860984248889e-193  2.96235989524799e-198  1.39075591581601e-203  2.12855558345619e-217  2.18741455138649e-235  5.13501883726656e-265  1.47159453803209e-285  3.82441004603823e-289  6.55229547478595e-272  6.28666302898055e-221  2.30046027737071e-115   3.30858454721071e-23   9.99999990097403e-01   6.83334991015767e-24   1.67727067823464e-16   2.44397019374673e-05  5.11348354843102e-105  1.82989245757530e-227  4.83436637691156e-314   0.00000000000000e+00   0.00000000000000e+00   0.00000000000000e+00   0.00000000000000e+00   0.00000000000000e+00   0.00000000000000e+00   0.00000000000000e+00   0.00000000000000e+00   0.00000000000000e+00   0.00000000000000e+00   0.00000000000000e+00   0.00000000000000e+00   0.00000000000000e+00   0.00000000000000e+00   0.00000000000000e+00   0.00000000000000e+00  1.87744945419674e-322  1.92285408704955e-319  1.22416127267023e-318  1.24339663164664e-316  6.87370726988714e-316  2.24470236333814e-309  4.40697077632332e-308  8.32574341243055e-310  1.98365589747790e-309  4.36128543816027e-318  2.16400752878466e-321  3.73513628255982e-321   0.00000000000000e+00  3.23909437413521e-320   0.00000000000000e+00   0.00000000000000e+00   0.00000000000000e+00   0.00000000000000e+00   0.00000000000000e+00   0.00000000000000e+00   0.00000000000000e+00   0.00000000000000e+00   0.00000000000000e+00   0.00000000000000e+00   0.00000000000000e+00   0.00000000000000e+00   0.00000000000000e+00   0.00000000000000e+00   0.00000000000000e+00   0.00000000000000e+00   0.00000000000000e+00   0.00000000000000e+00   0.00000000000000e+00   0.00000000000000e+00   0.00000000000000e+00   0.00000000000000e+00   0.00000000000000e+00   0.00000000000000e+00   0.00000000000000e+00   0.00000000000000e+00   0.00000000000000e+00   0.00000000000000e+00   0.00000000000000e+00   0.00000000000000e+00   0.00000000000000e+00   0.00000000000000e+00   0.00000000000000e+00   0.00000000000000e+00   0.00000000000000e+00   0.00000000000000e+00  4.09377814722911e-308  4.98177504115703e-132   2.00888296460611e-23   1.73031126471420e-08   2.25984570898046e-07   1.65012503334913e-05   6.84689822305940e-04   3.10335803306636e-04   4.14625155058181e-05   3.94883543270197e-06   2.90303006813468e-07   5.85859102612500e-10   3.46620893064641e-13   1.58369478895823e-16   5.23363503461356e-20   1.43711938443000e-23   1.47724005621640e-27   1.54753768941116e-31   8.98228788104547e-36   3.62408072760726e-40   3.86169865583044e-44   2.66638928948647e-48   5.58647091808120e-52   2.57115141236654e-75  2.38905480353858e-145  1.27687575105029e-118   9.33381563951103e-66   1.80317081838246e-68   1.96633087172264e-71   2.22350160425204e-74   3.00463711523978e-77   1.80008936528330e-80   8.90258347748493e-84   1.56378403715834e-87   1.07583327297925e-91   3.06822936738737e-95   2.35583779417210e-99  2.40618455758886e-103  1.31595407427551e-107  3.82314450356624e-111  1.75267646161684e-115  5.21722552528216e-120  1.99430813945114e-124  1.24371384285412e-128  2.80848175335671e-133  2.17679467422150e-138  8.51098840521764e-143  1.16925840371290e-147  4.48478403623966e-152  6.83243883930891e-157  1.99672139657097e-161  3.34520378780323e-166  7.78066670929016e-171  1.06363238550907e-175  2.79159474898718e-127  2.79203046734767e-114  8.46262226797368e-118  1.40869252837678e-122  8.22616208282501e-124  4.79609462215074e-123  2.00654344300178e-121  2.64180154411161e-120  6.92237831095581e-121  2.45312897721169e-122  1.33601968612919e-124  6.15457247041786e-125  5.19873102778276e-126  2.70931109496130e-126  1.72787310980883e-128  6.72727703063206e-134  5.05812845611021e-137  6.72890087803880e-137  5.22862891395884e-136  5.50336538277285e-136  1.49491305223436e-138  3.68433204572741e-142  9.53494500148109e-144  5.29515362752565e-143  4.23634699600257e-146  2.20632695717994e-146  3.65762190931441e-143  2.35431629837203e-142  3.10341094827385e-141  2.42525095320675e-140  5.44243066543463e-141  8.42896181579545e-141  2.22483200905418e-140  1.66573852840975e-146  1.28932362643508e-149  1.23991587659989e-151  3.93089930423272e-153  8.63543034287435e-158  3.56622090824821e-163  6.65387853921000e-169  2.94110528795413e-174  6.83038800812006e-181  9.47714167662381e-185  1.34112994576410e-185  3.36166590367350e-189  9.51332408159253e-190  4.23560845974664e-190  1.86792369001123e-186  9.17007219212298e-185  1.05659006446890e-187  3.41539440428134e-188  1.59320254337605e-186  2.58439459715591e-184  7.54453039117935e-182  1.53802440680427e-185  7.09111090281808e-186  3.74656258417820e-186  1.10058258537281e-186  6.62388814077393e-187  8.39864977690212e-189  5.18988817962275e-192  1.38109155084113e-207  5.97639168855258e-229  4.75496618070424e-252  1.75849678583049e-260  6.02019279957946e-243  7.75164690454498e-180   2.51205811562448e-79   1.49822304252341e-11   9.99814032881093e-01   6.23588357771748e-26   9.45452930923947e-08   1.53885655825344e-21  5.12673783028796e-129  1.79395599001471e-255   0.00000000000000e+00   0.00000000000000e+00   0.00000000000000e+00   0.00000000000000e+00   0.00000000000000e+00   0.00000000000000e+00   0.00000000000000e+00   0.00000000000000e+00   0.00000000000000e+00   0.00000000000000e+00  1.13635098543487e-322  7.47118690607671e-313  3.77432917842425e-301  1.70862440373712e-295  7.12882392324509e-291  3.02149455571203e-286  5.75788613067367e-283  6.09846867723468e-283  1.95319284323014e-278  1.60035678137212e-277  3.63696692152754e-279  6.34508437465266e-275  1.63080625011859e-275  8.34549907853921e-280  1.05440780835477e-277  2.12334605904159e-284  5.33189090062639e-289  5.26017638314250e-279  1.80918763881782e-281  1.80187312992843e-283  2.27539182715845e-286  1.05854910550666e-286  1.55147066221515e-285  6.21000281567459e-291  1.90276177656724e-290  2.47740799461251e-296  2.15383440430267e-295  3.81644784117989e-300  3.59308157669182e-305  3.51580972879468e-308  6.70804910658513e-307  3.89926846794049e-311  2.49378719687786e-312  1.31824001778721e-316  4.40805369219560e-320   0.00000000000000e+00   0.00000000000000e+00   0.00000000000000e+00   0.00000000000000e+00   0.00000000000000e+00   0.00000000000000e+00   0.00000000000000e+00   0.00000000000000e+00   0.00000000000000e+00   0.00000000000000e+00   0.00000000000000e+00   0.00000000000000e+00   0.00000000000000e+00   0.00000000000000e+00   0.00000000000000e+00   0.00000000000000e+00   0.00000000000000e+00   0.00000000000000e+00   0.00000000000000e+00   0.00000000000000e+00   0.00000000000000e+00   0.00000000000000e+00  1.88832001491191e-245   1.77841765479626e-94   1.02659231110479e-13   6.42197357396731e-12   9.39295220064279e-10   6.84737516447010e-07   8.56027450756414e-05   2.11061724933383e-03   2.26815488895121e-04   2.70735630200470e-05   3.49538370940639e-06   9.95548572295181e-08   3.89898701730702e-12   7.25015650400729e-17   1.12485125849628e-21   2.53690511563574e-26   3.33108072462284e-31   1.27962796714809e-35   5.83557459585179e-40   3.76161603619602e-44   4.40286764448817e-48   2.57280217108932e-52   5.09235784253967e-56  2.62531357547101e-100  2.38991946019285e-173   7.94249016905195e-96   7.06092782076632e-70   6.87491015609878e-73   2.50485081538460e-76   6.27633181060488e-80   1.50474565488576e-83   2.38663715225918e-87   6.19439355801462e-91   4.05655760659253e-95   1.31499344314853e-99  1.04116693007946e-103  2.12246791426219e-108  4.82293047220084e-113  5.33762332673639e-118  2.97961167871354e-122  2.34930549649477e-127  1.02667520118802e-132  5.66635740692197e-138  1.33093461482248e-142  9.78499299526899e-148  7.49760358371459e-154  5.84671449498766e-159  2.39489200827977e-164  2.17883423437031e-169  2.07613860775713e-174  1.20979014691204e-179  1.27586095413543e-184  1.56358258637910e-189  8.03902624250142e-192  1.38271643961566e-113  3.86055875943690e-113  5.79061358252233e-114  9.15550489510607e-116  8.02928226056510e-117  1.11332157452623e-114  4.06189527768076e-118  6.25266536977041e-122  2.32028516198514e-123  1.00537773271961e-124  5.20637624449911e-123  4.98148307674374e-125  5.55639224815718e-129  5.07222528231581e-129  2.51810734377776e-128  1.61680335498188e-129  3.46953528744680e-131  5.29600753550509e-133  1.93023917632433e-134  3.17655335698677e-135  2.23081813166682e-136  3.99389187025419e-140  1.00386548840461e-140  4.06535600989872e-140  1.32745287210327e-143  1.97938501367908e-144  2.66240357506963e-144  1.04319600503304e-143  4.04093107048316e-143  5.47641298684354e-142  2.95000025794399e-138  2.58081470037320e-140  4.99703140744891e-143  1.94425702440519e-145  6.06589813286960e-149  5.92998440129057e-147  5.35147209929970e-148  9.72682224064564e-153  1.21157419924655e-155  9.49650393115067e-158  6.60630345606596e-161  1.32187091589621e-169  9.24630848361468e-175  1.25633522857153e-176  6.16104463925175e-179  2.15711499269215e-183  4.66377907360739e-185  7.99644087707188e-188  8.47616672427397e-191  1.26661445451474e-192  4.11104106799274e-194  4.55515159922323e-192  4.96358379788232e-192  2.48786808914612e-195  4.91716513982428e-199  8.32798329257827e-198  2.34285497596870e-196  4.45677991126745e-198  6.81330499660428e-198  2.20453219522402e-198  2.89254615696665e-194  5.62242241746084e-195  7.06129854462190e-196  1.51385555021082e-203  2.66743477582631e-224  4.01892302265585e-248  8.14897067718758e-283  2.43976239213897e-301  7.47727515551570e-286  3.30296344632467e-199   1.57394182948890e-91   1.07346390059450e-52   4.97683087360924e-18   1.00000000000000e+00   1.23351037755245e-64  7.61736159926363e-226   0.00000000000000e+00   0.00000000000000e+00   0.00000000000000e+00   0.00000000000000e+00   0.00000000000000e+00   0.00000000000000e+00   0.00000000000000e+00   0.00000000000000e+00   0.00000000000000e+00   0.00000000000000e+00   0.00000000000000e+00   0.00000000000000e+00   0.00000000000000e+00   0.00000000000000e+00   0.00000000000000e+00   0.00000000000000e+00   0.00000000000000e+00   0.00000000000000e+00   0.00000000000000e+00   0.00000000000000e+00   0.00000000000000e+00   0.00000000000000e+00   0.00000000000000e+00   0.00000000000000e+00   0.00000000000000e+00   0.00000000000000e+00   0.00000000000000e+00   0.00000000000000e+00   0.00000000000000e+00   0.00000000000000e+00   0.00000000000000e+00   0.00000000000000e+00   0.00000000000000e+00   0.00000000000000e+00   0.00000000000000e+00   0.00000000000000e+00   0.00000000000000e+00   0.00000000000000e+00   0.00000000000000e+00   0.00000000000000e+00   0.00000000000000e+00   0.00000000000000e+00   0.00000000000000e+00   0.00000000000000e+00   0.00000000000000e+00   0.00000000000000e+00   0.00000000000000e+00   0.00000000000000e+00   0.00000000000000e+00   0.00000000000000e+00   0.00000000000000e+00   0.00000000000000e+00   0.00000000000000e+00   0.00000000000000e+00   0.00000000000000e+00   0.00000000000000e+00   0.00000000000000e+00   0.00000000000000e+00   0.00000000000000e+00   0.00000000000000e+00   0.00000000000000e+00   0.00000000000000e+00   0.00000000000000e+00   0.00000000000000e+00   0.00000000000000e+00   0.00000000000000e+00   0.00000000000000e+00   0.00000000000000e+00   0.00000000000000e+00   0.00000000000000e+00   0.00000000000000e+00  3.34657897377277e-195   6.70851406062761e-52   9.99965706578731e-01   3.23550299777372e-05   2.27280425360606e-06   1.35846751625151e-07   2.83878605848934e-10   3.93485504847308e-13   1.22573052516117e-16   1.35895350487715e-20   1.40833207787395e-24   2.47021001744753e-29   4.67887625374008e-34   7.53000543491996e-39   9.93344341549764e-44   1.26211042761267e-48   4.36588837399057e-54   5.35500725539059e-59   5.41213976672952e-64   5.29379023723041e-69   2.11089468120185e-73   8.42927534441436e-78   7.46857321046344e-82  1.00950802738080e-176  7.08777235001544e-162   8.60913727058928e-88   2.09765714182939e-89   1.82015911329265e-91   7.91750259213536e-94   6.26386147165006e-96   2.80771133946639e-98  1.99387297744817e-100  4.54000454000404e-103  3.68059919084366e-106  2.52576074652464e-108  1.78853503506502e-111  1.19181962866743e-114  3.70035204791800e-118  1.84442664818532e-121  8.25517787327379e-126  4.20657717476886e-130  3.39920788277372e-134  3.04871271500266e-138  8.54744068234538e-143  2.87062311215154e-148  5.86677031457543e-153  5.78245497109585e-158  1.31674131604422e-162  9.94442479760486e-168  8.55990660765854e-173  5.26231643645113e-178  4.87689484698100e-183  1.79704619148361e-188  2.52850829867440e-163  3.21502596924076e-111  7.18631915248135e-111  4.65858658327281e-119  2.54310678640194e-114  3.43135470714595e-115  3.20526912497042e-118  1.94326904648915e-120  6.90031860475697e-127  1.85083684663733e-130  4.63594202159804e-124  1.50022674407747e-126  1.07945657542957e-126  1.26986886583121e-125  4.85670491480761e-128  7.05224628056192e-128  3.16563892777180e-132  3.56353822182546e-132  5.35948235511332e-133  2.33536957953305e-136  4.04963796032709e-139  1.05399940129188e-139  1.93420389007702e-138  1.94021738485913e-140  5.63226064842413e-143  6.13310140711664e-145  1.91216155407708e-146  5.21390015050185e-144  6.14787454396221e-142  4.93838230015451e-141  7.90572905603220e-139  7.23768386357183e-139  8.96666816822960e-140  1.84262758732930e-143  1.76348767376981e-146  1.32093756709893e-144  1.53813960142599e-146  5.99489707273413e-150  2.50354125319665e-152  4.38678287521888e-156  2.62979198028956e-161  4.69074672330059e-171  7.21740175976733e-176  9.20920841440244e-178  5.23883739361881e-180  5.72891868311481e-185  1.46998696983447e-185  9.67085624134493e-185  3.79994494632090e-185  1.19854348496756e-188  7.23968155071646e-194  1.09658149282616e-195  4.31042713203775e-197  2.93373381782336e-198  9.18561666244303e-201  4.17322527380624e-203  1.05859408597326e-201  3.17305878817009e-206  1.75635259112198e-203  1.26566244087825e-204  8.66595602326212e-199  5.82741906011144e-199  5.56702779384726e-199  1.04108500871130e-192  2.11933389663584e-189  1.71300523924875e-190  3.21598265730859e-201  2.90208875737659e-223  3.17005293740819e-255  5.78011787543494e-290  5.68596685032347e-292  8.42213964397227e-216  5.33688588814948e-108   4.53737225926698e-48   1.41478269634193e-03   2.54352498808689e-05   1.44430056540464e-84  4.59597697830886e-181  4.06376536817561e-247   0.00000000000000e+00   0.00000000000000e+00   0.00000000000000e+00   0.00000000000000e+00   0.00000000000000e+00   0.00000000000000e+00   0.00000000000000e+00   0.00000000000000e+00   0.00000000000000e+00   0.00000000000000e+00   0.00000000000000e+00   0.00000000000000e+00   0.00000000000000e+00   0.00000000000000e+00   0.00000000000000e+00   0.00000000000000e+00   0.00000000000000e+00   0.00000000000000e+00   0.00000000000000e+00   0.00000000000000e+00   0.00000000000000e+00   0.00000000000000e+00   0.00000000000000e+00   0.00000000000000e+00   0.00000000000000e+00   0.00000000000000e+00   0.00000000000000e+00   0.00000000000000e+00   0.00000000000000e+00   0.00000000000000e+00   0.00000000000000e+00   0.00000000000000e+00   0.00000000000000e+00   0.00000000000000e+00   0.00000000000000e+00   0.00000000000000e+00   0.00000000000000e+00   0.00000000000000e+00   0.00000000000000e+00   0.00000000000000e+00   0.00000000000000e+00   0.00000000000000e+00   0.00000000000000e+00   0.00000000000000e+00   0.00000000000000e+00   0.00000000000000e+00   0.00000000000000e+00   0.00000000000000e+00   0.00000000000000e+00   0.00000000000000e+00   0.00000000000000e+00   0.00000000000000e+00   0.00000000000000e+00   0.00000000000000e+00   0.00000000000000e+00   0.00000000000000e+00   0.00000000000000e+00   0.00000000000000e+00   0.00000000000000e+00   0.00000000000000e+00   0.00000000000000e+00   0.00000000000000e+00   0.00000000000000e+00   0.00000000000000e+00   0.00000000000000e+00   0.00000000000000e+00   0.00000000000000e+00   0.00000000000000e+00   0.00000000000000e+00   0.00000000000000e+00  6.57698452595367e-116   2.05525081693684e-20   7.89460816794680e-19   8.91854150847735e-17   1.31402424078300e-14   3.79350962595581e-13   6.02022484101424e-12   2.17289921841830e-10   1.11177673783450e-08   3.11761230109603e-07   1.19783700956718e-05   8.21037304434863e-04   1.35180921710829e-04   7.61209650462146e-06   7.67633696052812e-07   4.78406068941628e-08   2.41930344537644e-11   2.16402316291338e-15   6.18650651345589e-20   6.18281645249619e-24   4.72617022696598e-28   5.52168041958215e-32   1.27980662804818e-74  5.92919449998448e-183   8.88420060172296e-77   4.76818148461996e-47   1.69516881364292e-50   3.78496441162477e-54   1.19498035802301e-57
   0.00000000000000e+00   0.00000000000000e+00   0.00000000000000e+00   0.00000000000000e+00   1.00000000000000e+00   0.00000000000000e+00   0.00000000000000e+00   0.00000000000000e+00   0.00000000000000e+00   0.00000000000000e+00   0.00000000000000e+00   0.00000000000000e+00   0.00000000000000e+00   0.00000000000000e+00   0.00000000000000e+00   0.00000000000000e+00   0.00000000000000e+00   0.00000000000000e+00   0.00000000000000e+00   0.00000000000000e+00   0.00000000000000e+00   0.00000000000000e+00   0.00000000000000e+00   0.00000000000000e+00   0.00000000000000e+00   0.00000000000000e+00   0.00000000000000e+00   0.00000000000000e+00   0.00000000000000e+00   0.00000000000000e+00   0.00000000000000e+00   0.00000000000000e+00   0.00000000000000e+00   0.00000000000000e+00   0.00000000000000e+00   0.00000000000000e+00   0.00000000000000e+00   0.00000000000000e+00   0.00000000000000e+00   0.00000000000000e+00   0.00000000000000e+00   0.00000000000000e+00   0.00000000000000e+00   0.00000000000000e+00   0.00000000000000e+00   0.00000000000000e+00   0.00000000000000e+00   0.00000000000000e+00   0.00000000000000e+00   0.00000000000000e+00   0.00000000000000e+00   0.00000000000000e+00   0.00000000000000e+00   0.00000000000000e+00   0.00000000000000e+00   0.00000000000000e+00  1.48469143806500e-112  8.45303522985790e-116   0.00000000000000e+00  3.07664595482293e-126  2.03410694223242e-130  3.35961226730847e-132  1.34448402736301e-135   0.00000000000000e+00   0.00000000000000e+00  3.28712006734001e-140  3.24911734449944e-142  7.53493096007588e-145  3.39127249662617e-141  2.83221424157752e-140  9.78618266722170e-143  2.72185053353222e-140  9.55066295123573e-142  9.86884753675841e-143  6.78012593004768e-144  5.90787498315519e-146  1.62586494594817e-147  1.61693519053947e-146  5.46811309190181e-142  1.78594351991818e-145  1.04775658782311e-142  2.37787808459848e-145  4.47188649045910e-172  5.32199338173961e-229  1.82642690572930e-287  2.38325380913735e-310  1.68849532459002e-254  1.71139124796398e-198   1.50037128399807e-93   7.67817842099851e-19   9.99999999999998e-01   3.67436396343306e-45  1.26594606531766e-193  2.24634485145615e-313   0.00000000000000e+00   0.00000000000000e+00   0.00000000000000e+00   0.00000000000000e+00   0.00000000000000e+00   0.00000000000000e+00   0.00000000000000e+00   0.00000000000000e+00   0.00000000000000e+00   0.00000000000000e+00   0.00000000000000e+00   0.00000000000000e+00   0.00000000000000e+00   0.00000000000000e+00   0.00000000000000e+00   0.00000000000000e+00   0.00000000000000e+00   0.00000000000000e+00   0.00000000000000e+00   0.00000000000000e+00   0.00000000000000e+00   0.00000000000000e+00   0.00000000000000e+00   0.00000000000000e+00   0.00000000000000e+00   0.00000000000000e+00   0.00000000000000e+00   0.00000000000000e+00   0.00000000000000e+00   0.00000000000000e+00   0.00000000000000e+00   0.00000000000000e+00   0.00000000000000e+00   0.00000000000000e+00   0.00000000000000e+00   0.00000000000000e+00   0.00000000000000e+00   0.00000000000000e+00   0.00000000000000e+00   0.00000000000000e+00   0.00000000000000e+00   0.00000000000000e+00   0.00000000000000e+00   0.00000000000000e+00   0.00000000000000e+00   0.00000000000000e+00   0.00000000000000e+00   0.00000000000000e+00   0.00000000000000e+00   0.00000000000000e+00   0.00000000000000e+00   0.00000000000000e+00   0.00000000000000e+00   0.00000000000000e+00   0.00000000000000e+00   0.00000000000000e+00   0.00000000000000e+00   0.00000000000000e+00   0.00000000000000e+00   0.00000000000000e+00   0.00000000000000e+00   0.00000000000000e+00   0.00000000000000e+00   0.00000000000000e+00   0.00000000000000e+00   0.00000000000000e+00   0.00000000000000e+00   0.00000000000000e+00   0.00000000000000e+00   0.00000000000000e+00  9.73487948309776e-223   1.30468749893261e-53   9.99999966211051e-01   2.14560747148732e-09   1.68451247655028e-08   9.71580231656259e-08   5.58168205327072e-08   4.85941751631495e-09   1.16039920799329e-10   1.21903849532571e-12   2.03898721317648e-15   5.96481149929000e-19   8.29369078043828e-23   2.34292267299603e-27   3.95964421740861e-32   4.55202897341226e-37   1.32165469926955e-42   5.35304031528602e-48   1.53771444962519e-53   2.75802903138065e-59   1.09055476557705e-64   5.61051461655076e-69   1.55937974229935e-75  3.10648209058354e-160  8.01555973643531e-174   9.33219008735399e-81   4.73191734445793e-83   9.41991932980710e-86   1.16136076069569e-88   3.88236272993734e-91   9.54688002663185e-94   6.93837708204248e-96   2.06236538440381e-98  3.05458070779710e-101  2.03049407656765e-103  2.48462295424822e-106  3.27499399399683e-109  3.00849940108014e-112  1.42607044199615e-114  8.01330489409075e-118  1.22437438446510e-121  1.90198871345449e-125  5.15646648373521e-129  4.15248792255525e-133  1.74119730165795e-138  1.00385182401131e-142  2.27899915225382e-147  3.74176600659436e-152  4.37728310520639e-157  9.42816536482976e-162  1.73032676902416e-166  2.35881349490497e-171  6.78205716769033e-177  4.45593186772331e-168  4.83325823198616e-113  8.17562762973826e-113  2.76906375537618e-119  2.18163978508017e-115  2.20203291522592e-115  1.61571423306732e-116  1.28257571940392e-121  2.22206553996089e-126  5.31027473101663e-125  1.04905745576226e-124  8.94837630427041e-126  2.73562233841426e-125  1.80935055627248e-126  4.94104326822386e-128  6.26841564370580e-128  9.45650443836167e-134  1.08471239021763e-134  1.78142394715967e-133  2.08935146036462e-135  4.21903864911753e-139  2.63252454141134e-140  1.38482421394390e-142  5.83516921876665e-144  3.53843141376787e-146  8.34445457443463e-147  5.04581034931762e-148  6.20290648104612e-146  7.36453393268658e-148  1.07089651679174e-145  1.01584720261892e-146  5.32636421697346e-145  2.94813483474033e-145  1.92048571450339e-147  4.69956014585575e-149  6.17632574317550e-150  2.94130615260909e-151  1.99784180546616e-156  5.55530419379138e-155  5.92162202496238e-152  5.43090508092476e-154  1.36154085405625e-160  2.78921655573062e-164  6.23239693414768e-168  1.46831272252124e-172  4.69833842215641e-179  8.63686972053396e-182  3.02841141080945e-183  1.77378670468323e-188  5.81455882318114e-191  2.49673705237260e-192  2.26285672418348e-196  8.54504418755750e-197  7.86658575555655e-198  2.69560263616942e-198  1.23210782818326e-195  2.00129462311987e-196  8.77084408307280e-196  3.73115913116563e-197  1.66123957652424e-198  2.90148109632375e-202  2.59823065371529e-201  3.03567217674146e-199  4.88452058844886e-195  8.69352665174170e-194  1.16254258821987e-193  1.68962388993459e-199  3.02521715244217e-210  5.20737193667424e-232  1.46530619977014e-258  9.83233516923431e-298   0.00000000000000e+00   0.00000000000000e+00  9.57347355007448e-309  1.92657193818362e-207   3.36740193421055e-85   1.57089443388254e-23   9.99999714365513e-01   1.02429891491564e-24   1.45925631756014e-23   2.69573949066176e-08  1.04198619838623e-111  2.38724801527164e-234  1.69464516523548e-321   0.00000000000000e+00   0.00000000000000e+00   0.00000000000000e+00   0.00000000000000e+00   0.00000000000000e+00   0.00000000000000e+00   0.00000000000000e+00   0.00000000000000e+00   0.00000000000000e+00   0.00000000000000e+00   0.00000000000000e+00   0.00000000000000e+00   0.00000000000000e+00   0.00000000000000e+00   0.00000000000000e+00   0.00000000000000e+00   0.00000000000000e+00   0.00000000000000e+00   0.00000000000000e+00  6.91691904177745e-323  1.38338380835549e-322  1.17383525191920e-316  6.63646639032493e-314  5.25503018182843e-316  5.78355221284347e-318   0.00000000000000e+00   0.00000000000000e+00   0.00000000000000e+00   0.00000000000000e+00   0.00000000000000e+00   0.00000000000000e+00   0.00000000000000e+00   0.00000000000000e+00   0.00000000000000e+00   0.00000000000000e+00   0.00000000000000e+00   0.00000000000000e+00   0.00000000000000e+00   0.00000000000000e+00   0.00000000000000e+00   0.00000000000000e+00   0.00000000000000e+00   0.00000000000000e+00   0.00000000000000e+00   0.00000000000000e+00   0.00000000000000e+00   0.00000000000000e+00   0.00000000000000e+00   0.00000000000000e+00   0.00000000000000e+00   0.00000000000000e+00   0.00000000000000e+00   0.00000000000000e+00   0.00000000000000e+00   0.00000000000000e+00   0.00000000000000e+00   0.00000000000000e+00   0.00000000000000e+00   0.00000000000000e+00   0.00000000000000e+00   0.00000000000000e+00   0.00000000000000e+00   0.00000000000000e+00   0.00000000000000e+00   0.00000000000000e+00   0.00000000000000e+00  2.71486445705292e-307  4.93908254221994e-131   5.36096007460920e-22   2.88219155221466e-06   1.27706197801618e-04   4.02813190865083e-03   2.20881170730885e-03   3.82436792133185e-04   4.94581114413278e-05   5.04703264052056e-06   2.66094132096102e-07   3.45508375514814e-10   2.72044966072119e-13   1.31740415084504e-16   4.48601941230676e-20   1.27987548553024e-23   1.35820830113222e-27   1.42346239473798e-31   7.79579424306202e-36   3.23057218029336e-40   3.56832116701579e-44   2.49540216723400e-48   5.28066926019184e-52   2.30443887831294e-75  2.00462866611608e-145  1.09595867830312e-118   8.44040748611994e-66   1.81135323280600e-68   2.13819036517439e-71   2.35416963697024e-74   3.12714499801692e-77   1.86024946541731e-80   9.30020483764719e-84   1.54632907092309e-87   1.01737617553340e-91   2.96645924167641e-95   2.25912042702105e-99  2.25106721513141e-103  1.24383970078337e-107  3.64641275780099e-111  1.65913172909353e-115  4.71097989913549e-120  1.90710679730010e-124  1.22553343452925e-128  2.58039838075238e-133  2.14994129749241e-138  8.27090223425985e-143  1.11789905078947e-147  4.27090448033500e-152  5.74696820757932e-157  1.79349938688285e-161  2.88456049756770e-166  7.07965163384675e-171  1.10964257535612e-175  6.80304956216640e-134  1.79624542629645e-121  1.05710525227438e-125  3.86722027496072e-130  4.62842666789532e-131  2.12250306064405e-129  1.35582251601286e-128  2.03370980559919e-127  1.19419351543178e-128  7.56621098989266e-130  4.09264267987557e-130  1.60808220014910e-130  9.60231135510120e-133  2.87539396933179e-134  2.69769444302834e-136  5.51890693107246e-140  2.89134405719465e-143  5.23240504651687e-144  1.74297086078063e-143  4.54411143854416e-142  1.51426662515351e-145  1.02373287633841e-150  2.03497857773629e-151  4.84367384794674e-151  1.62226440838777e-153  6.13777335146918e-154  5.42157494958138e-151  6.08258989170828e-150  2.21506578337809e-147  1.91717239836453e-147  5.62755700849263e-148  4.97801166655727e-148  1.95943010844738e-146  4.80173733304239e-153  1.92951428225745e-155  6.19494224784130e-157  1.95540521521734e-157  4.55303163601747e-164  2.93546890432083e-170  2.79639313813033e-174  3.08673075376381e-180  4.05218928966904e-187  4.17714365279742e-193  6.15291597805431e-193  1.56447840538277e-194  1.61921929892737e-195  3.01023657887036e-197  2.09325342726846e-194  3.62188105256276e-192  8.61213505639043e-194  1.83889920742839e-195  2.54439926417710e-193  3.47571262569848e-190  8.39174650371440e-189  2.01088750987609e-192  8.42930154677437e-192  7.83571139372876e-190  6.67822273292366e-190  4.49537110825403e-190  1.52254598058879e-193  1.24289506291922e-202  7.43990793891666e-230  4.22913706601300e-267  1.94698967913774e-290  5.32337148670605e-301  1.17080536090821e-264  1.50206914809700e-158   1.68656891647523e-54   1.90400884302440e-06   9.99997512542459e-01   3.21797464218637e-27   4.14079951439294e-12   1.78657234311490e-30  3.60392985306745e-138  2.35295622095736e-263   0.00000000000000e+00   0.00000000000000e+00   0.00000000000000e+00   0.00000000000000e+00   0.00000000000000e+00   0.00000000000000e+00   0.00000000000000e+00   0.00000000000000e+00   0.00000000000000e+00   0.00000000000000e+00   0.00000000000000e+00  1.56747266799594e-319  6.99309039304915e-308  3.15322261307922e-303  1.21198557875902e-298  7.70125977449843e-292  3.00883447325007e-290  2.19340064405349e-290  1.93190679923522e-286  1.47716749580463e-284  1.40315065791814e-285  3.65215446994259e-282  5.51823470919052e-283  1.73361831745952e-286  8.51174976783315e-285  4.76120852260426e-291  6.19522064508039e-297  5.50014622252604e-286  5.18725629424621e-288  7.51121922362971e-291  2.33829343942775e-293  1.36437712436527e-292  3.43356057318642e-291  8.72965995259393e-298  3.04865540173503e-298  2.11041695466291e-303  1.64152808119846e-301  2.06566691791983e-306  5.69148260179172e-312  7.86971726338220e-315  6.12964711360350e-312  6.15144535031236e-316  3.78793213747442e-318  1.92685601878086e-322   0.00000000000000e+00   0.00000000000000e+00   0.00000000000000e+00   0.00000000000000e+00   0.00000000000000e+00   0.00000000000000e+00   0.00000000000000e+00   0.00000000000000e+00   0.00000000000000e+00   0.00000000000000e+00   0.00000000000000e+00   0.00000000000000e+00   0.00000000000000e+00   0.00000000000000e+00   0.00000000000000e+00   0.00000000000000e+00   0.00000000000000e+00   0.00000000000000e+00   0.00000000000000e+00   0.00000000000000e+00   0.00000000000000e+00   0.00000000000000e+00   0.00000000000000e+00  2.72323133919970e-244   6.77903667038720e-93   3.41130533964385e-12   9.46759367352012e-10   8.93057591919240e-07   5.68705293151117e-04   2.12950701249233e-02   2.72986744287200e-03   2.20810102109224e-04   3.29083403592014e-05   3.68517687058062e-06   8.85581871332804e-08   4.04805508737571e-12   9.04571804146325e-17   9.31664355207285e-22   1.88551705256136e-26   2.95976160914131e-31   1.27009728587624e-35   5.77782480967450e-40   3.09248835009675e-44   3.86837554911978e-48   2.34512547116564e-52   4.86280209959689e-56  2.39088460468357e-100  2.01230899273694e-173   6.69651911436689e-96   6.58273626370895e-70   6.35155165506647e-73   2.36708319601884e-76   5.84950694474257e-80   1.44483100730037e-83   2.32384203838631e-87   6.26130996876376e-91   3.95178810364422e-95   1.23986420293258e-99  1.01531833393089e-103  2.05740520555359e-108  4.55569466330060e-113  5.08480176603708e-118  2.86192559078759e-122  2.16757477767546e-127  9.57523692307781e-133  5.36469295856213e-138  1.26004794503523e-142  9.42728946330265e-148  6.71316698173926e-154  5.44939696657645e-159  2.26999858787779e-164  2.09289394817227e-169  1.93473339645133e-174  1.11489104696127e-179  1.19388596187707e-184  1.50807346551869e-189  1.30895774175718e-194  1.18010208743887e-121  3.81437638896448e-120  7.09811161268021e-120  6.27178649502831e-122  1.45043878792079e-123  4.70431781437765e-123  4.93847197798556e-125  2.54855106130946e-127  1.32138936226351e-130  3.51254332086287e-132  1.93876206182487e-130  2.90650564236937e-131  5.47068878033439e-136  2.33301706500779e-136  1.43229340904196e-135  5.00635940738625e-136  9.54424409532904e-138  1.02738473559595e-140  6.20137462865877e-142  1.42034021623842e-141  1.56082313314555e-143  8.69445216447808e-148  3.60124460227373e-148  9.92533353435671e-148  1.96721780013003e-151  1.67121855990145e-153  1.30469482467886e-151  2.15948940558011e-150  1.08375906512530e-149  8.50124723180661e-149  7.93685023536399e-147  1.10641628959446e-147  2.69892525759765e-149  1.45651740157655e-152  4.37094321234046e-156  8.47789344947901e-154  1.13448794319140e-152  5.65477502861366e-159  6.34420836375276e-162  1.95990912948394e-164  2.76243934896017e-167  1.96312378553986e-176  2.24034737945662e-181  9.88455894718848e-183  1.03713384904794e-184  6.47917724296544e-190  6.86896530906525e-193  4.02141680326347e-195  1.30352761583716e-196  4.93641009487631e-198  2.05077102543344e-201  9.32341499175660e-200  1.48724802740626e-198  5.75964023179171e-202  5.30624981268968e-206  8.43168411385549e-205  4.33357430124099e-203  2.02751518321309e-203  7.82059859293662e-202  8.25209307801378e-200  9.31280952351755e-196  4.60827105576777e-194  3.71647364832299e-199  3.04279237939584e-215  3.86995014091902e-247  1.07918157297125e-286   0.00000000000000e+00   0.00000000000000e+00  5.75238098358607e-305  2.77132028412778e-207  2.39038983838910e-150   3.69413616442744e-69   6.27332917966016e-18   1.00000000000001e+00   2.77277577454584e-63  4.11637396742676e-229   0.00000000000000e+00   0.00000000000000e+00   0.00000000000000e+00   0.00000000000000e+00   0.00000000000000e+00   0.00000000000000e+00   0.00000000000000e+00   0.00000000000000e+00   0.00000000000000e+00   0.00000000000000e+00   0.00000000000000e+00   0.00000000000000e+00   0.00000000000000e+00   0.00000000000000e+00   0.00000000000000e+00   0.00000000000000e+00   0.00000000000000e+00   0.00000000000000e+00   0.00000000000000e+00   0.00000000000000e+00   0.00000000000000e+00   0.00000000000000e+00   0.00000000000000e+00   0.00000000000000e+00   0.00000000000000e+00   0.00000000000000e+00   0.00000000000000e+00   0.00000000000000e+00   0.00000000000000e+00   0.00000000000000e+00   0.00000000000000e+00   0.00000000000000e+00   0.00000000000000e+00   0.00000000000000e+00   0.00000000000000e+00   0.00000000000000e+00   0.00000000000000e+00   0.00000000000000e+00   0.00000000000000e+00   0.00000000000000e+00   0.00000000000000e+00   0.00000000000000e+00   0.00000000000000e+00   0.00000000000000e+00   0.00000000000000e+00   0.00000000000000e+00   0.00000000000000e+00   0.00000000000000e+00   0.00000000000000e+00   0.00000000000000e+00   0.00000000000000e+00   0.00000000000000e+00   0.00000000000000e+00   0.00000000000000e+00   0.00000000000000e+00   0.00000000000000e+00   0.00000000000000e+00   0.00000000000000e+00   0.00000000000000e+00   0.00000000000000e+00   0.00000000000000e+00   0.00000000000000e+00   0.00000000000000e+00   0.00000000000000e+00   0.00000000000000e+00   0.00000000000000e+00   0.00000000000000e+00   0.00000000000000e+00   0.00000000000000e+00   0.00000000000000e+00   0.00000000000000e+00  2.71800928041687e-195   5.72875844804059e-52   9.99965536187284e-01   3.65125055373010e-05   3.23726930918228e-06   1.29758775400727e-07   3.29807558183679e-10   4.94337756787184e-13   1.65662868758278e-16   1.38421762934096e-20   1.09479616555803e-24   2.76681565278904e-29   5.57077624259159e-34   7.72794835011951e-39   9.99857968310911e-44   1.21322743263863e-48   4.46263583795092e-54   4.68229341056850e-59   4.16567770630174e-64   4.80830252372650e-69   2.09744211627341e-73   8.01602445498188e-78   6.43194841225692e-82  8.09100543620555e-177  6.50028131815759e-162   8.09512555901486e-88   1.94000226893879e-89   1.72875611210345e-91   7.07288950368209e-94   5.88567495575383e-96   2.79899724540064e-98  2.02417797918965e-100  4.47746752427409e-103  3.70839904089448e-106  3.05519133338522e-108  1.89564536647812e-111  1.18193701036300e-114  3.65806889832987e-118  1.97121012305760e-121  8.62001481771772e-126  4.25520415117715e-130  3.26332333366196e-134  2.92851765173533e-138  8.82905227770301e-143  2.78913023033035e-148  5.54237522188367e-153  5.53264413194731e-158  1.36049776988703e-162  1.02151978965170e-167  8.03994833314358e-173  4.85455641971106e-178  5.25171388095037e-183  1.71315756377914e-188  6.36824924060015e-171  2.88949748027390e-118  5.85314813945827e-118  1.59974342695540e-124  1.47588290327384e-120  3.31980518287168e-123  3.29285970986234e-125  4.46191530543731e-127  1.31492933834698e-134  1.87156837127405e-137  4.27655125506409e-131  8.35829986808093e-133  3.71782100048090e-134  2.48202273702106e-133  8.46770564720567e-135  1.22592100819172e-133  2.44233665632465e-139  2.57692097783101e-140  1.70462163003767e-140  5.21247984156464e-143  2.17639460455459e-145  8.05953359392387e-147  1.44986221446079e-146  1.59139512910761e-148  7.18506183912818e-151  1.01065143064823e-153  2.60826311056735e-154  8.04140186715598e-151  1.29481329500780e-148  1.97911626367385e-148  2.21469553133084e-147  1.73359648911493e-145  2.54427733905509e-146  5.25629463289670e-151  1.32613789714735e-153  1.07568293235139e-150  1.78387147219062e-151  8.51343898795382e-156  1.35752074081888e-159  6.97205206528572e-163  4.82228817465800e-167  8.70099914719546e-178  1.26276726296329e-183  2.18590840865068e-185  7.00892573033693e-186  4.09958823735095e-190  5.92322044291018e-192  9.04083299764024e-191  1.03426532963595e-191  4.69439630484158e-195  8.63512645638869e-201  1.05482262809160e-202  1.24612887208423e-202  1.34749422868625e-204  1.24253496207142e-207  1.42711718092416e-211  4.84313372612992e-209  7.88612129600665e-212  1.32088336158266e-211  1.22325431933553e-212  9.45041946190954e-205  1.31797149985851e-202  3.08058870929084e-200  6.97674702460859e-194  5.92209364532151e-190  9.18204104567961e-195  4.34718748672377e-220  1.01626600983908e-259  3.94639393744906e-312   0.00000000000000e+00  1.20463579834659e-318  1.76704610264326e-234  3.86400607837861e-149   1.47133201898853e-39   9.99974564750116e-01   6.54894182195057e-04   3.37321440242789e-85  2.14652380677968e-190  9.09878323204817e-253   0.00000000000000e+00   0.00000000000000e+00   0.00000000000000e+00   0.00000000000000e+00   0.00000000000000e+00   0.00000000000000e+00   0.00000000000000e+00   0.00000000000000e+00   0.00000000000000e+00   0.00000000000000e+00   0.00000000000000e+00   0.00000000000000e+00   0.00000000000000e+00   0.00000000000000e+00   0.00000000000000e+00   0.00000000000000e+00   0.00000000000000e+00   0.00000000000000e+00   0.00000000000000e+00   0.00000000000000e+00   0.00000000000000e+00   0.00000000000000e+00   0.00000000000000e+00   0.00000000000000e+00   0.00000000000000e+00   0.00000000000000e+00   0.00000000000000e+00   0.00000000000000e+00   0.00000000000000e+00   0.00000000000000e+00   0.00000000000000e+00   0.00000000000000e+00   0.00000000000000e+00   0.00000000000000e+00   0.00000000000000e+00   0.00000000000000e+00   0.00000000000000e+00   0.00000000000000e+00   0.00000000000000e+00   0.00000000000000e+00   0.00000000000000e+00   0.00000000000000e+00   0.00000000000000e+00   0.00000000000000e+00   0.00000000000000e+00   0.00000000000000e+00   0.00000000000000e+00   0.00000000000000e+00   0.00000000000000e+00   0.00000000000000e+00   0.00000000000000e+00   0.00000000000000e+00   0.00000000000000e+00   0.00000000000000e+00   0.00000000000000e+00   0.00000000000000e+00   0.00000000000000e+00   0.00000000000000e+00   0.00000000000000e+00   0.00000000000000e+00   0.00000000000000e+00   0.00000000000000e+00   0.00000000000000e+00   0.00000000000000e+00   0.00000000000000e+00   0.00000000000000e+00   0.00000000000000e+00   0.00000000000000e+00   0.00000000000000e+00   0.00000000000000e+00  4.15315649261551e-116   1.45361154033733e-20   8.01943361140528e-19   1.28880328807758e-16   3.35198769180910e-14   1.89283882727996e-12   1.72869140167599e-10   1.45230349874890e-08   1.12729537769058e-06   9.69098701421472e-05   7.93111674703693e-03   1.41634607949928e-03   9.73914258740524e-05   8.42469950922913e-06   8.29985986094382e-07   6.03322248974375e-08   2.02304057063715e-11   1.69133852876088e-15   6.84784497993671e-20   7.04885551375060e-24   4.13404975894828e-28   4.29817505872982e-32   1.12543975969525e-74  5.55426069307507e-183   8.06877601118916e-77   4.42413367660101e-47   1.56244075880745e-50   3.39144578870674e-54
