   2.99895653652709e-01   2.92665525822287e-01   6.69350936851310e-02   1.56070596740946e-04   1.19786333376434e-11   3.78860570371301e-24   9.17480770643392e-40   3.86527160037992e-57   1.30658738902877e-76   5.42217471945058e-94   5.36673169935269e-95   6.52237032114370e-98  5.18422284577661e-102  1.23209752628710e-106  5.18681695886996e-111  1.32135863049190e-114  4.55850313099576e-118  1.45658997276638e-121  6.30534242758856e-126  5.95309361614703e-132  3.87712708397245e-139  1.67892082274270e-143  2.01814437855000e-144  1.17020287987205e-145  3.10825873392071e-147  1.77476418825283e-148  4.46444181974516e-149  3.61467518395032e-150  4.05079034678325e-151  2.97086153619338e-152  3.96842675818213e-153  3.38308303043874e-154  2.53048377643027e-155  8.72724130495989e-156  7.43946482483488e-156  5.45461166454218e-156  4.08754401153022e-156  4.55153347343801e-156  4.79497437260172e-156  4.35387615396855e-156  3.97968120365770e-156  2.05039028024710e-156  6.52099828057924e-157  1.03184460719086e-157  4.03884007476020e-158  1.19883950042224e-158  3.63231118366672e-159  6.71386922337713e-160  1.12460870230336e-160  4.53150514096428e-161  2.36498681353183e-161  1.09994352978371e-161  3.04197699241041e-103  1.72333922151525e-103  3.11341200756551e-104  1.67298597333080e-106  5.19812431289783e-110  9.73851167956611e-116  2.19357158232020e-119  5.30126491051100e-124  2.53378016830162e-126  4.86719081042596e-130  1.93481434684073e-130  2.97188777875534e-131  1.03111852196122e-130  2.36973681847863e-130  1.54453736622426e-130  1.01557070211593e-129  8.71590353751495e-130  2.64412589223010e-130  8.29457832661807e-132  1.59881241674980e-133  1.36560809031094e-135  3.01763894177699e-136  7.14281695116841e-137  8.18670077793324e-138  1.42007355993611e-138  6.59033613482412e-140  1.03273390233687e-140  1.95735243529355e-140  2.09981255047591e-139  2.38068691213421e-145  4.47193180798026e-172  1.29626570736071e-146   3.62799205300857e-95   1.35040396910446e-51   1.00000000000000e+00   1.00000000000000e+00   1.00000000000000e+00   1.00000000000000e+00   9.99999999999998e-01   1.00000000000000e+00   1.00000000000000e+00   1.00000000000000e+00   1.00000000000000e+00   1.00000000000000e+00   1.00000000000000e+00   1.00000000000000e+00   9.99999999999995e-01   1.00000000000000e+00   9.99999999999998e-01   9.99999999999993e-01   1.00000000000001e+00   1.00000000000000e+00   9.99999999999996e-01   1.00000000000000e+00   9.99999999999998e-01   1.00000000000000e+00   1.00000000000000e+00   1.00000000000001e+00   1.00000000000001e+00   1.00000000000000e+00   9.99999999999995e-01   1.00000000000000e+00   1.00000000000001e+00   1.00000000000000e+00   1.00000000000001e+00   1.00000000000000e+00   9.99999999999997e-01   9.99999999999998e-01   9.99999999999993e-01   1.00000000000000e+00   9.99999999999998e-01   9.99999999999997e-01   1.00000000000000e+00   1.00000000000000e+00   1.00000000000000e+00   1.00000000000000e+00   9.99999999999999e-01   1.00000000000000e+00   9.99999999999999e-01   9.99999999999998e-01   9.99999999999997e-01   1.00000000000000e+00   1.00000000000000e+00   9.99999999999997e-01   1.00000000000000e+00   9.99999999999998e-01   9.99999999999997e-01   1.00000000000000e+00   1.00000000000000e+00   9.99999999999997e-01   9.99999999999998e-01   1.00000000000000e+00   1.00000000000000e+00   1.00000000000000e+00   9.99999999999999e-01   1.00000000000000e+00   9.99999999999999e-01   1.00000000000000e+00   9.99999999999998e-01   1.00000000000000e+00   9.99999999999996e-01   1.00000000000000e+00   1.00000000000000e+00   1.00000000000000e+00   1.00000000000000e+00   1.00000000000000e+00   1.00000000000000e+00   1.00000000000000e+00   9.99999999999998e-01   1.00000000000000e+00   2.95526097087415e-10   3.63797328323146e-10   3.14782332076412e-10   1.89934785332610e-10   3.65300609508106e-11   1.75396293289562e-12   7.57936434931175e-14   1.04436643528352e-15   2.61338089273195e-18   2.48560380424430e-21   6.84403559574083e-25   1.46816528889295e-28   2.16467859831226e-32   5.79424216552587e-37   1.94591933724972e-41   7.06440737531654e-46   1.67214528476859e-50   7.70907537394023e-55   3.78225710077547e-58   1.38645076265567e-63   1.11571759776379e-65   1.18740180238496e-65   1.17980641911282e-65   5.28206505990786e-67   1.32297579261138e-68   2.57254485864910e-70   8.32264810687347e-72   1.84924474010501e-73   1.09268402528297e-74   3.30681520523636e-76   5.07658457600024e-78   2.68683065663007e-79   3.25228421127251e-81   5.04975488247361e-83   4.17111758380822e-85   1.00020482755345e-86   3.24799656197273e-89   6.22179875827666e-92   9.83330785164311e-95   1.63187896376876e-97  9.92887781265586e-101  4.87950314400665e-105  2.92564992055258e-108  5.23146146777874e-112  8.43399013172570e-116  1.09927510835716e-119  2.49641801185371e-123  3.57909751518470e-127  3.71690281336427e-131  1.24696435296626e-135  1.09078600218280e-139  1.43345265101415e-143  6.97910200356641e-101  6.37909144252333e-101  1.15723272796285e-101  1.77049585527840e-103  1.52460724502418e-104  1.15781427104950e-104  5.63421848765113e-105  1.26868168709916e-106  7.15128650358688e-110  2.94694886703208e-113  1.24702355305121e-113  2.18718172464277e-114  2.64142335076645e-115  1.34701336296498e-115  5.09869935770033e-116  2.98087869109841e-117  1.64006381874556e-118  1.67084296455401e-121  2.31044263503401e-123  2.75779061383390e-124  1.98576148068336e-126  8.19692047704222e-129  1.06324291525916e-129  3.57121267140728e-132  5.10803469587488e-134  1.64000518923323e-134  3.61646157421530e-133  2.56403365915523e-133  4.06653319278597e-134  2.55582243820785e-134  1.33321321096256e-133  8.81456350946525e-134  1.68761023176148e-134  2.33118385029196e-135  6.50818492577100e-136  9.53971305455424e-137  3.59528687211047e-139  4.78234140220211e-142  1.09976721410526e-142  6.57587670809782e-143  7.44316415115061e-144  2.00333673386097e-146  9.29649363119213e-149  2.28375049214482e-153  7.78653619578436e-157  3.51965752530356e-162  4.39421249121906e-167  4.69345753609817e-172  1.94783692761831e-174  3.48270321806248e-177  2.12646640973674e-181  4.29291555868650e-183  1.42479425544638e-185  4.47235114868527e-187  5.87189761746559e-187  4.96049006498812e-187  1.11173997528464e-186  3.14765983304660e-186  2.83905769047830e-186  9.28726217782993e-187  7.05296983015750e-188  2.53548966745535e-191  1.95728771286642e-191  1.11343031586384e-190  3.16519440421012e-190  1.02527977672620e-189  1.30590259473382e-190  2.09796316949518e-193  1.16720845494233e-193  1.51016360960728e-197  7.95821588942011e-210  5.11742175470720e-231  1.91221380087650e-243  1.53957879663557e-198  3.25294626491052e-151  1.22216884994838e-116   5.24568823200116e-86   1.45171679864549e-31   1.00000000000000e+00   9.99999999999997e-01   1.00000000000000e+00   9.99999999999997e-01   9.99999999999998e-01   1.00000000000000e+00   1.00000000000000e+00   1.00000000000001e+00   9.99999999999999e-01   1.00000000000000e+00   9.99999999999995e-01   1.00000000000000e+00   1.00000000000000e+00   1.00000000000000e+00   1.00000000000000e+00   1.00000000000000e+00   9.99999999999999e-01   1.00000000000000e+00   1.00000000000000e+00   9.99999999999998e-01   1.00000000000000e+00   1.00000000000000e+00   1.00000000000000e+00   1.00000000000000e+00   9.99999999999997e-01   1.00000000000000e+00   1.00000000000000e+00   9.99999999999996e-01   1.00000000000000e+00   9.99999999999997e-01   9.99999999999999e-01   1.00000000000000e+00   9.99999999999998e-01   1.00000000000000e+00   1.00000000000000e+00   1.00000000000000e+00   9.99999999999999e-01   9.99999999999999e-01   9.99999999999999e-01   1.00000000000000e+00   1.00000000000000e+00   1.00000000000000e+00   1.00000000000000e+00   1.00000000000000e+00   1.00000000000000e+00   9.99999999999999e-01   1.00000000000000e+00   1.00000000000000e+00   1.00000000000000e+00   9.99999999999999e-01   1.00000000000000e+00   1.00000000000000e+00   1.00000000000000e+00   1.00000000000000e+00   1.00000000000000e+00   1.00000000000000e+00   9.99999999999999e-01   1.00000000000000e+00   1.00000000000000e+00   1.00000000000000e+00   1.00000000000000e+00   1.00000000000000e+00   1.00000000000000e+00   1.00000000000000e+00   1.00000000000000e+00   9.99999999999999e-01   1.00000000000000e+00   9.99999999999999e-01   1.00000000000000e+00   1.00000000000000e+00   9.99999999999998e-01   1.00000000000000e+00   1.00000000000000e+00   1.00000000000000e+00   9.99999999993678e-01   9.99999999921186e-01   9.99999999143452e-01   9.99999981025480e-01   9.99996855038425e-01   9.98227996353034e-01   6.18005554110141e-01   1.36164597502258e-02   1.47221873305323e-04   8.30242500571554e-07   2.24803155394964e-09   5.97743683918321e-12   7.82076874936302e-15   9.28355185286877e-18   5.93341462796545e-21   3.12272143707392e-24   4.09769566430052e-27   2.94285846569283e-30   5.96470944059869e-33   4.53595554686966e-42   2.83638010139537e-42   2.37126132830410e-42   2.43118498365153e-42   3.88974530604803e-44   3.88668996319795e-46   3.57323453205040e-48   3.95436953987721e-50   1.56911712268143e-52   8.42431839616051e-55   1.53059495132732e-57   1.14593420543050e-60   3.62595273330240e-63   3.09421224329897e-66   3.84583845367329e-69   2.45819740184214e-72   6.13429923263924e-75   2.97787964190540e-78   1.17117428816984e-81   5.19717121420600e-85   3.23471871798633e-88   7.87661894372607e-92   7.49763721109816e-96   3.50873472859691e-99  5.42597221588630e-103  2.21256582510619e-106  4.21467575656136e-110  1.57926998105976e-113  3.10803806316748e-117  8.25471275297675e-121  1.12603194819953e-124  1.59311256967827e-128  2.73913309657530e-124  8.17139801206533e-111  5.79460982713166e-111  1.57627682608363e-111  3.77299887774859e-114  9.40918426843152e-118  5.56308647840021e-118  1.92679443162759e-116  2.04893162302765e-116  8.65021304087331e-117  1.08136187915685e-117  6.25937409024107e-119  2.33081823225459e-121  1.88836262445882e-122  7.74500480472033e-123  2.55230960261641e-123  8.53699990036271e-125  1.74211637287556e-128  5.80689774722427e-132  1.74580014707150e-131  1.07853306905810e-131  1.09689011729481e-132  8.29192962071766e-136  4.75317926242458e-138  1.77747536530351e-138  1.07372507700428e-139  2.60210527964812e-139  2.14191661100354e-138  1.26441170733047e-137  2.27602265331422e-137  2.39804974450923e-137  6.68530753216766e-137  1.33883159273190e-136  1.30858067242071e-136  2.37053207290386e-137  2.22510562550090e-140  4.21562207247722e-146  3.60547236662898e-149  5.27731961862236e-151  3.93315061331808e-153  2.82069085587742e-157  4.02990965151222e-163  6.94967927193202e-169  5.73760656464198e-174  4.31744544062720e-180  1.16974729381439e-181  1.72950217525503e-185  1.30042424835528e-182  3.80184441022281e-180  3.77076060078858e-180  3.77897630136387e-181  1.03331239118356e-182  2.39233002430195e-180  1.06355324027934e-178  7.81287634629747e-179  1.25655774077615e-179  1.27410949870276e-181  9.58162125164432e-183  6.92732739621700e-184  1.49068039338460e-185  5.89095268816061e-186  7.33556787000167e-187  9.28723570020775e-189  5.34214715301363e-192  1.24290918200559e-202  5.57591158495888e-220  1.59439437124575e-173  1.21368515630591e-131  5.94798898069418e-110   5.18982174245620e-82   8.45596727130966e-24   1.00000000000000e+00   1.00000000000000e+00   1.00000000000000e+00   1.00000000000000e+00   9.99999999999999e-01   1.00000000000000e+00   1.00000000000000e+00   1.00000000000001e+00   1.00000000000000e+00   1.00000000000000e+00   9.99999999999994e-01   1.00000000000000e+00   9.99999999999999e-01   9.99999999999999e-01   1.00000000000001e+00   9.99999999999996e-01   9.99999999999999e-01   1.00000000000000e+00   1.00000000000000e+00   1.00000000000000e+00   1.00000000000000e+00   9.99999999999999e-01   9.99999999999998e-01   1.00000000000000e+00   9.99999999999997e-01   1.00000000000000e+00   9.99999999999998e-01   9.99999999999999e-01   1.00000000000000e+00   1.00000000000000e+00   9.99999999999999e-01   1.00000000000000e+00   1.00000000000000e+00   1.00000000000000e+00   1.00000000000000e+00   9.99999999999999e-01   1.00000000000000e+00   9.99999999999999e-01   9.99999999999999e-01   1.00000000000000e+00   1.00000000000000e+00   1.00000000000000e+00   1.00000000000000e+00   1.00000000000000e+00   1.00000000000000e+00   1.00000000000000e+00   1.00000000000000e+00   1.00000000000000e+00   9.99999999999999e-01   1.00000000000000e+00   1.00000000000000e+00   1.00000000000000e+00   9.99999999999999e-01   1.00000000000000e+00   1.00000000000000e+00   1.00000000000000e+00   1.00000000000000e+00   9.99999999999999e-01   9.99999999999999e-01   1.00000000000000e+00   1.00000000000000e+00   1.00000000000000e+00   1.00000000000000e+00   1.00000000000000e+00   1.00000000000000e+00   1.00000000000000e+00   1.00000000000000e+00   9.99999999999999e-01   9.99999999999999e-01   1.00000000000000e+00   9.99999999999999e-01   9.99999999999999e-01   1.00000000000000e+00   9.99999999999999e-01   1.00000000000000e+00   9.99999999999986e-01   9.99999999999210e-01   9.99999999976633e-01   9.99999996731622e-01   9.99997030862623e-01   9.97485637511974e-01   2.84334036828366e-01   1.51707811688603e-04   3.31951944966859e-08   3.74381126403604e-12   1.05610293820287e-15   2.40621593142002e-19   9.88849186640471e-23   3.60304708064969e-26   2.37304576672910e-29   4.46055846257537e-32   3.57429337127148e-35   6.90654246561944e-38   4.77900706871586e-47   2.30794902105824e-47   1.76230981735503e-47   1.78324108516624e-47   1.42890548624483e-49   5.53275086013916e-52   1.60068945365175e-54   4.59301304372133e-57   5.96767911457922e-60   1.39921027627179e-62   1.03693094817240e-65   3.22589614992202e-69   2.93606795970437e-72   6.59898090425272e-76   1.81857518660768e-79   2.39239622578609e-83   1.15234116011765e-86   9.61323340680499e-91   5.97371198270825e-95   4.29647345484842e-99  7.60984226028054e-103  5.51904841050966e-107  5.98940742085574e-112  5.20167782059995e-116  1.98286094355419e-120  1.86676094604108e-124  2.14992255634283e-128  1.60465425903724e-132  2.01288694805415e-136  2.41742621222248e-140  2.56585768671194e-144  2.31852654032852e-148  9.92467929614190e-110  1.65544457523619e-108  1.10450282381751e-108  1.91339945563950e-109  4.27219992369288e-111  5.74964711795815e-111  3.66695777231119e-111  8.04665327243012e-112  4.00711204934152e-114  4.41381712880736e-118  1.28747704429715e-118  1.02730068365913e-118  1.12017297336003e-119  8.14849695370465e-122  4.58745831441928e-124  2.82111445257710e-124  5.14809668474762e-125  2.06707874561025e-126  1.37714438064101e-128  6.01564723462500e-130  1.07560010118582e-130  5.74624985220753e-132  6.36548382310855e-134  1.35240748035891e-135  6.58110168011165e-136  6.24401912286763e-137  2.77770074992055e-139  1.92508922516393e-139  7.03057418866987e-140  5.76957255768038e-139  9.62595114589085e-135  9.43823611945124e-135  2.57618141202291e-135  1.19273537512967e-136  6.08176056832741e-140  1.24318784973839e-142  2.62664709303341e-143  6.60402938582790e-144  2.95293513398607e-145  5.35450957593061e-148  2.62412792083163e-152  5.18456226796132e-155  1.51178709621809e-157  6.60826703323790e-161  2.77572989810589e-167  7.17356978531687e-174  2.80444449871841e-176  6.20135061557841e-179  2.71656580827409e-182  3.12310811324110e-184  1.82435303637093e-187  4.23606315122044e-188  2.29292155997883e-187  1.78059933801788e-187  1.41317359577320e-188  5.90012491101442e-192  2.50117867965418e-192  1.75324029976182e-192  2.40598809080145e-193  4.90088004798530e-195  4.74966102172366e-195  3.36773932363352e-195  4.62967561338985e-195  3.17736054193816e-194  6.55907629374006e-195  4.68872503544004e-194  4.09303216465191e-199  4.01877918684786e-215  7.81957010743136e-247  5.04272915858098e-202  1.15643406624026e-142  1.53265565013744e-100   1.07382564725668e-53   1.00000000000000e+00   1.00000000000000e+00   1.00000000000000e+00   1.00000000000000e+00   1.00000000000001e+00   1.00000000000001e+00   1.00000000000000e+00   1.00000000000000e+00   1.00000000000001e+00   9.99999999999996e-01   1.00000000000001e+00   9.99999999999998e-01   1.00000000000000e+00   1.00000000000000e+00   1.00000000000000e+00   9.99999999999997e-01   9.99999999999998e-01   9.99999999999997e-01   9.99999999999994e-01   9.99999999999994e-01   9.99999999999994e-01   9.99999999999995e-01   1.00000000000001e+00   1.00000000000000e+00   1.00000000000001e+00   9.99999999999994e-01   1.00000000000001e+00   1.00000000000000e+00   9.99999999999997e-01   1.00000000000000e+00   1.00000000000001e+00   1.00000000000000e+00   1.00000000000001e+00   9.99999999999995e-01   1.00000000000000e+00   9.99999999999999e-01   9.99999999999997e-01   9.99999999999998e-01   1.00000000000000e+00   9.99999999999997e-01   1.00000000000000e+00   9.99999999999999e-01   9.99999999999999e-01   9.99999999999998e-01   9.99999999999999e-01   1.00000000000000e+00   1.00000000000000e+00   9.99999999999999e-01   9.99999999999997e-01   9.99999999999999e-01   1.00000000000000e+00   1.00000000000000e+00   1.00000000000000e+00   1.00000000000000e+00   1.00000000000000e+00   9.99999999999999e-01   1.00000000000000e+00   1.00000000000000e+00   9.99999999999998e-01   1.00000000000000e+00   1.00000000000000e+00   9.99999999999997e-01   1.00000000000000e+00   1.00000000000000e+00   1.00000000000000e+00   1.00000000000000e+00   9.99999999999999e-01   9.99999999999997e-01   9.99999999999997e-01   1.00000000000000e+00   9.99999999999999e-01   1.00000000000000e+00   1.00000000000000e+00   9.99999999999999e-01   9.99999999999999e-01   1.00000000000000e+00   4.46618255229048e-05   7.78285795178139e-06   5.26336431199826e-07   9.71799780000134e-09   1.22165128963198e-10   3.46872763922320e-13   2.42271156486782e-16   2.93359292403927e-19   7.63488988007646e-23   1.47609779487841e-26   1.69174435478419e-30   2.30954067662475e-34   3.48057417344074e-38   1.51032732708941e-42   1.70455445682399e-46   2.18225963621409e-50   3.05169512118642e-54   1.53259003421285e-57   5.12681763749432e-61   5.00872020057746e-64   1.62152007397991e-66   1.27393625801203e-66   1.35144933005777e-66   2.77859719936763e-67   2.64290293494475e-68   1.64156641994369e-69   1.30786782556870e-70   5.67905706648925e-72   3.63417992807129e-73   8.63295381599918e-75   8.66742638314761e-77   4.03850393759307e-78   2.66085823156229e-80   1.75038925104216e-82   4.91952395997840e-85   2.25955854282151e-87   1.15088713656752e-90   6.75705835752444e-94   5.03102866368446e-97  4.00202602192392e-100  1.09358495966083e-103  4.23574655912142e-108  1.13811282394668e-111  1.17387750569516e-115  2.52136410333740e-119  2.05919379986164e-123  2.10281100457597e-127  1.42588922960849e-131  1.42967950707154e-135  5.61988452988137e-140  3.83445282682585e-144  4.56149687353650e-148  1.11844976594441e-106  1.58101050740586e-106  7.80288149585238e-107  6.95435627760308e-108  8.79964879309602e-111  4.67981635890863e-112  1.09674780282963e-112  1.63865648943539e-114  1.91745222068241e-117  6.88471692904289e-120  3.94945149964771e-120  3.91479306127709e-121  1.29841101248831e-121  8.83743095270891e-122  2.38668238469048e-122  4.76257406310689e-124  3.71325278248127e-125  1.18260923869133e-127  2.85475505212529e-128  2.69566682795032e-129  8.98886941659127e-133  2.19736758168310e-134  1.30877469222420e-134  3.02849457936421e-135  8.80951635074140e-137  1.92082335832786e-139  4.26296724671856e-140  3.40046223880688e-139  3.65197769037420e-138  4.36623752668729e-135  2.09660086362570e-134  1.70335391813047e-134  3.12364264094115e-135  2.58623818378809e-137  1.00428370223883e-139  5.56460801189202e-141  1.11300705678825e-141  3.86115553331606e-144  1.56803030181153e-146  1.25473109557939e-149  3.32720125281764e-152  4.40780768195426e-156  2.69951255847160e-161  4.82276999219322e-167  3.00706060683685e-174  1.18609136714343e-176  5.62787401566892e-180  2.95014694379221e-181  1.34662903293705e-181  1.11682767745037e-182  4.39323052510594e-185  1.20214163846326e-188  1.20785126226516e-192  3.63312575046942e-194  3.02127392322538e-196  6.03523361346638e-197  5.46902829750328e-197  9.04614415375993e-198  2.79550581605802e-200  7.37619007232550e-194  5.87114427073704e-194  4.63624928802175e-195  1.25944216568924e-193  1.15573787019912e-191  1.98674418663498e-191  5.76040066811044e-190  2.13791738455106e-189  7.63510043557612e-190  9.21233891749787e-195  5.30227115409550e-220  6.57711075004336e-216  1.36212586919282e-147  1.94801595194098e-100   2.05454715035140e-49   1.00000000000000e+00   1.00000000000000e+00   1.00000000000000e+00   9.99999999999996e-01   1.00000000000000e+00   9.99999999999995e-01   9.99999999999994e-01   9.99999999999993e-01   1.00000000000000e+00   9.99999999999997e-01   1.00000000000001e+00   1.00000000000000e+00   9.99999999999996e-01   9.99999999999996e-01   9.99999999999995e-01   1.00000000000000e+00   1.00000000000000e+00   9.99999999999997e-01   9.99999999999996e-01   1.00000000000000e+00   9.99999999999993e-01   9.99999999999998e-01   9.99999999999995e-01   9.99999999999999e-01   1.00000000000001e+00   9.99999999999994e-01   1.00000000000000e+00   1.00000000000000e+00   1.00000000000000e+00   9.99999999999999e-01   9.99999999999998e-01   1.00000000000000e+00   9.99999999999998e-01   1.00000000000000e+00   1.00000000000000e+00   9.99999999999997e-01   1.00000000000000e+00   1.00000000000000e+00   9.99999999999997e-01   9.99999999999999e-01   1.00000000000000e+00   1.00000000000000e+00   1.00000000000000e+00   1.00000000000000e+00   1.00000000000000e+00   9.99999999999999e-01   9.99999999999998e-01   1.00000000000000e+00   1.00000000000000e+00   1.00000000000000e+00   1.00000000000000e+00   1.00000000000000e+00   1.00000000000000e+00   1.00000000000000e+00   9.99999999999999e-01   1.00000000000000e+00   1.00000000000000e+00   1.00000000000000e+00   1.00000000000000e+00   1.00000000000000e+00   1.00000000000000e+00   1.00000000000000e+00   1.00000000000000e+00   1.00000000000000e+00   1.00000000000000e+00   1.00000000000000e+00   1.00000000000000e+00   1.00000000000000e+00   1.00000000000000e+00   1.00000000000000e+00   1.00000000000000e+00   1.00000000000000e+00   1.00000000000000e+00   1.00000000000000e+00   1.00000000000000e+00   1.00000000000000e+00   1.00000000000000e+00   1.00000000000000e+00   9.99999999999993e-01   9.99999999999909e-01   9.99999999999413e-01   9.99999999998460e-01   9.99999999995103e-01   9.99999999976535e-01   9.99999999342972e-01   9.99999956569061e-01   9.99995746136878e-01   9.98845385676847e-01   4.40888307516663e-01   1.82297877788324e-03   2.44664164431160e-06   9.62720926146232e-10   9.69814427718417e-13   4.83937879378954e-16   7.43612046729807e-19   6.89109610301539e-30   8.12107413162225e-30   1.02767233063445e-29   1.05019569402374e-29   5.25965138547951e-32   1.32587902759360e-34   4.31294758631233e-37   2.34449954359296e-39   5.79729576431347e-42   4.37816852594759e-44   1.68377721435970e-46
   7.00104346347290e-01   7.07334474177712e-01   9.33064906314869e-01   9.99843929403259e-01   9.99999999988022e-01   1.00000000000000e+00   1.00000000000000e+00   1.00000000000000e+00   9.99999999999999e-01   9.99999999999998e-01   1.00000000000000e+00   9.99999999999999e-01   9.99999999999999e-01   1.00000000000000e+00   1.00000000000000e+00   1.00000000000000e+00   9.99999999999998e-01   9.99999999999998e-01   1.00000000000000e+00   1.00000000000000e+00   9.99999999999998e-01   1.00000000000000e+00   1.00000000000000e+00   1.00000000000000e+00   9.99999999999998e-01   1.00000000000000e+00   1.00000000000000e+00   9.99999999999998e-01   9.99999999999997e-01   1.00000000000000e+00   9.99999999999997e-01   9.99999999999999e-01   9.99999999999996e-01   1.00000000000000e+00   1.00000000000000e+00   9.99999999999997e-01   1.00000000000000e+00   9.99999999999998e-01   9.99999999999993e-01   9.99999999999995e-01   9.99999999999997e-01   9.99999999999995e-01   9.99999999999995e-01   9.99999999999994e-01   1.00000000000000e+00   9.99999999999993e-01   9.99999999999999e-01   1.00000000000000e+00   9.99999999999996e-01   1.00000000000001e+00   1.00000000000000e+00   1.00000000000000e+00   1.00000000000001e+00   9.99999999999999e-01   9.99999999999997e-01   9.99999999999988e-01   9.99999999999996e-01   9.99999999999992e-01   9.99999999999991e-01   1.00000000000001e+00   9.99999999999998e-01   9.99999999999995e-01   1.00000000000000e+00   9.99999999999993e-01   1.00000000000000e+00   9.99999999999988e-01   9.99999999999996e-01   9.99999999999994e-01   1.00000000000001e+00   1.00000000000001e+00   1.00000000000000e+00   9.99999999999996e-01   1.00000000000000e+00   9.99999999999988e-01   1.00000000000001e+00   1.00000000000001e+00   9.99999999999993e-01   9.99999999999997e-01   9.99999999999997e-01   1.00000000000001e+00   1.00000000000001e+00   1.00000000000000e+00   1.00000000000001e+00   9.99999999999996e-01   9.99999999999995e-01   1.00000000000000e+00   1.30751947262837e-26  2.20268346880431e-165  1.35846971219077e-241  6.21920341559251e-256   0.00000000000000e+00   0.00000000000000e+00   0.00000000000000e+00   0.00000000000000e+00   0.00000000000000e+00   0.00000000000000e+00   0.00000000000000e+00   0.00000000000000e+00   0.00000000000000e+00   0.00000000000000e+00   0.00000000000000e+00   0.00000000000000e+00   0.00000000000000e+00   0.00000000000000e+00   0.00000000000000e+00   0.00000000000000e+00   0.00000000000000e+00   0.00000000000000e+00   0.00000000000000e+00   0.00000000000000e+00   0.00000000000000e+00   0.00000000000000e+00   0.00000000000000e+00   0.00000000000000e+00   0.00000000000000e+00   0.00000000000000e+00   0.00000000000000e+00   0.00000000000000e+00   0.00000000000000e+00   0.00000000000000e+00   0.00000000000000e+00   0.00000000000000e+00   0.00000000000000e+00   0.00000000000000e+00   0.00000000000000e+00   0.00000000000000e+00   0.00000000000000e+00   0.00000000000000e+00   0.00000000000000e+00   0.00000000000000e+00   0.00000000000000e+00   0.00000000000000e+00   0.00000000000000e+00   0.00000000000000e+00   0.00000000000000e+00   0.00000000000000e+00   0.00000000000000e+00   0.00000000000000e+00   0.00000000000000e+00   0.00000000000000e+00   0.00000000000000e+00   0.00000000000000e+00   0.00000000000000e+00   0.00000000000000e+00   0.00000000000000e+00   0.00000000000000e+00   0.00000000000000e+00   0.00000000000000e+00   0.00000000000000e+00   0.00000000000000e+00   0.00000000000000e+00   0.00000000000000e+00   0.00000000000000e+00   0.00000000000000e+00   0.00000000000000e+00   0.00000000000000e+00   0.00000000000000e+00   0.00000000000000e+00   0.00000000000000e+00   0.00000000000000e+00  1.58445214250792e-212   9.92670267999366e-44   9.99999999704475e-01   9.99999999636202e-01   9.99999999685218e-01   9.99999999810065e-01   9.99999999963470e-01   9.99999999998248e-01   9.99999999999924e-01   1.00000000000000e+00   1.00000000000000e+00   1.00000000000000e+00   1.00000000000000e+00   9.99999999999999e-01   1.00000000000000e+00   1.00000000000000e+00   1.00000000000000e+00   1.00000000000000e+00   1.00000000000000e+00   1.00000000000000e+00   9.99999999999999e-01   1.00000000000000e+00   9.99999999999999e-01   1.00000000000000e+00   9.99999999999998e-01   1.00000000000000e+00   1.00000000000000e+00   1.00000000000000e+00   1.00000000000000e+00   1.00000000000000e+00   1.00000000000000e+00   1.00000000000000e+00   1.00000000000000e+00   9.99999999999999e-01   1.00000000000000e+00   9.99999999999999e-01   9.99999999999996e-01   9.99999999999998e-01   9.99999999999999e-01   9.99999999999999e-01   1.00000000000000e+00   1.00000000000000e+00   9.99999999999997e-01   1.00000000000001e+00   9.99999999999997e-01   1.00000000000000e+00   9.99999999999994e-01   1.00000000000000e+00   9.99999999999997e-01   1.00000000000000e+00   1.00000000000000e+00   1.00000000000001e+00   1.00000000000000e+00   9.99999999999996e-01   9.99999999999999e-01   1.00000000000000e+00   1.00000000000000e+00   1.00000000000000e+00   1.00000000000001e+00   1.00000000000000e+00   1.00000000000000e+00   1.00000000000000e+00   1.00000000000000e+00   9.99999999999998e-01   1.00000000000000e+00   9.99999999999997e-01   1.00000000000001e+00   9.99999999999996e-01   9.99999999999990e-01   9.99999999999997e-01   9.99999999999998e-01   1.00000000000000e+00   1.00000000000000e+00   1.00000000000001e+00   9.99999999999993e-01   1.00000000000000e+00   9.99999999999996e-01   1.00000000000001e+00   1.00000000000000e+00   1.00000000000001e+00   1.00000000000001e+00   1.00000000000001e+00   9.99999999999990e-01   9.99999999999986e-01   1.00000000000000e+00   9.99999999999986e-01   9.99999999999995e-01   1.00000000000001e+00   1.00000000000001e+00   9.99999999999992e-01   1.00000000000001e+00   9.99999999999988e-01   9.99999999999994e-01   1.00000000000001e+00   9.99999999999997e-01   1.00000000000001e+00   9.99999999999999e-01   9.99999999999989e-01   1.00000000000001e+00   1.00000000000001e+00   1.00000000000001e+00   9.99999999999995e-01   9.99999999999996e-01   9.99999999999997e-01   1.00000000000000e+00   9.99999999999991e-01   1.00000000000001e+00   9.99999999999998e-01   1.00000000000001e+00   1.00000000000001e+00   1.00000000000001e+00   9.99999999999990e-01   9.99999999999990e-01   9.99999999999991e-01   1.00000000000001e+00   9.99999999999999e-01   9.99999999999995e-01   1.00000000000001e+00   9.99999999999995e-01   9.99999999999999e-01   1.00000000000000e+00   9.99999999999988e-01   1.00000000000001e+00   1.00000000000001e+00   1.00000000000001e+00   9.99999999999996e-01   9.99999999999988e-01   1.00000000000000e+00   1.00000000000001e+00   9.99999999999986e-01   1.00000000000000e+00   1.00000000000001e+00   1.87389881320394e-22  2.85394184153092e-129  1.17231644689964e-207  4.45443814124647e-213  4.17820803739831e-211  7.76279946024925e-205  2.32458906999598e-201  7.61516750804653e-201  3.35191193013528e-201  1.29870246057688e-201  1.81752257082762e-201  7.28557910820932e-201  2.91385575120384e-200  6.18800961915964e-200  9.50656385920753e-200  1.40576182960024e-199  1.51722842701638e-199  1.63782861886545e-199  1.99930064737518e-199  2.11683497336681e-199  1.36207099208794e-199  5.53474004904735e-200  9.45294924183310e-201  7.21137440083848e-204  3.02482126341727e-206  2.21453024097021e-206  1.22655106589027e-206  1.93985001156143e-207  3.51211160209742e-210  2.46328218987905e-212  2.07140329816608e-214  6.40061583561796e-217  4.65935356819559e-218  1.21193787117231e-218  1.47792362974527e-220  2.64969171509985e-225  1.56316785866272e-227  5.47200031603850e-230  3.05478421856421e-236  3.22423535109371e-238  1.34839078774526e-239  3.07689558637314e-242  1.49706460678843e-246  9.36765645936694e-250  8.57947456904126e-254  2.00164040153081e-260  3.99447998213472e-267  4.30578702732919e-272  2.01066765078277e-276  1.67777472731200e-282  1.50044606927742e-290  2.10588774845980e-298  4.09448888516835e-302  2.24979809509263e-305  4.45130789258144e-311  4.97387802531761e-315  1.98089010101706e-316  7.58214384930748e-318  9.91145092122125e-320  1.58101006669199e-321  4.94065645841247e-324   0.00000000000000e+00   0.00000000000000e+00   0.00000000000000e+00   0.00000000000000e+00   0.00000000000000e+00   0.00000000000000e+00   0.00000000000000e+00   0.00000000000000e+00   0.00000000000000e+00   0.00000000000000e+00  1.66010190653101e-308  2.02007148632626e-133   5.35155527132787e-26   6.32247267457027e-12   7.88166463277419e-11   8.56547202819542e-10   1.89745219863586e-08   3.14496157450431e-06   1.77200364696383e-03   3.81994445889861e-01   9.86383540249773e-01   9.99852778126693e-01   9.99999169757500e-01   9.99999997751967e-01   9.99999999994025e-01   9.99999999999993e-01   1.00000000000000e+00   9.99999999999999e-01   1.00000000000000e+00   9.99999999999999e-01   1.00000000000000e+00   9.99999999999998e-01   1.00000000000000e+00   1.00000000000000e+00   1.00000000000000e+00   1.00000000000000e+00   9.99999999999999e-01   1.00000000000000e+00   9.99999999999999e-01   1.00000000000000e+00   1.00000000000000e+00   9.99999999999998e-01   1.00000000000000e+00   9.99999999999997e-01   9.99999999999995e-01   9.99999999999999e-01   9.99999999999998e-01   1.00000000000001e+00   1.00000000000000e+00   1.00000000000000e+00   1.00000000000001e+00   1.00000000000001e+00   1.00000000000000e+00   1.00000000000000e+00   9.99999999999995e-01   9.99999999999994e-01   1.00000000000001e+00   1.00000000000000e+00   1.00000000000000e+00   9.99999999999996e-01   1.00000000000001e+00   1.00000000000000e+00   1.00000000000000e+00   9.99999999999998e-01   9.99999999999997e-01   9.99999999999999e-01   9.99999999999999e-01   1.00000000000000e+00   1.00000000000001e+00   1.00000000000000e+00   9.99999999999997e-01   9.99999999999988e-01   9.99999999999988e-01   1.00000000000000e+00   9.99999999999994e-01   9.99999999999995e-01   9.99999999999987e-01   1.00000000000002e+00   9.99999999999992e-01   1.00000000000001e+00   1.00000000000001e+00   1.00000000000000e+00   1.00000000000001e+00   1.00000000000000e+00   1.00000000000001e+00   1.00000000000001e+00   1.00000000000000e+00   1.00000000000000e+00   1.00000000000001e+00   1.00000000000001e+00   9.99999999999989e-01   1.00000000000001e+00   9.99999999999997e-01   1.00000000000001e+00   9.99999999999992e-01   1.00000000000000e+00   1.00000000000001e+00   9.99999999999991e-01   9.99999999999988e-01   9.99999999999989e-01   9.99999999999991e-01   1.00000000000000e+00   1.00000000000000e+00   9.99999999999998e-01   1.00000000000000e+00   1.00000000000000e+00   9.99999999999988e-01   1.00000000000001e+00   9.99999999999994e-01   1.00000000000001e+00   1.00000000000000e+00   9.99999999999990e-01   1.00000000000001e+00   1.00000000000000e+00   9.99999999999997e-01   1.00000000000001e+00   9.99999999999997e-01   1.00000000000000e+00   1.00000000000001e+00   9.99999999999991e-01   1.00000000000000e+00   1.00000000000001e+00   9.99999999999987e-01   9.99999999999995e-01   1.00000000000000e+00   1.00000000000001e+00   9.99999999999986e-01   1.00000000000002e+00   1.00000000000001e+00   1.00000000000000e+00   1.00000000000001e+00   1.00000000000001e+00   1.00000000000001e+00   1.00000000000001e+00   1.00000000000000e+00   5.40698258115142e-47  1.92854394009876e-156  1.28509004926210e-192  1.69437400260660e-196  2.15967387689788e-189  8.69764932788080e-188  7.38962327827619e-189  8.06492542808588e-190  1.81464670872219e-190  1.81211011147116e-190  4.14838864987367e-190  1.55199263158276e-189  2.86982220856640e-189  3.94035328334590e-189  3.33487356740612e-189  3.17187306028737e-189  2.73860649834011e-189  2.31980901558045e-189  1.96172547099823e-189  1.46579162510522e-189  1.12032646707753e-189  8.31665442795334e-190  7.53983214261189e-190  7.60335555415168e-190  5.62809715484830e-190  9.77093454255652e-191  4.95323419812342e-193  3.21448439590809e-197  6.70933917592123e-198  5.46013590496015e-200  2.70348120406580e-201  3.88620098221852e-203  2.23410925737360e-204  1.21244914393295e-204  6.80200904384987e-205  8.07626084703979e-207  1.49522424864949e-209  5.87029322753070e-211  3.24292783698069e-211  3.52461487638283e-211  1.87433742819347e-211  6.81377962721889e-212  1.56350284120279e-212  1.13589255177836e-214  2.59517245866124e-215  2.15575447037643e-216  9.48955441903891e-218  6.46818788315767e-221  1.11395865150006e-221  1.34291633985180e-221  8.31177687058914e-222  1.17970868956572e-221  2.92256900200609e-221  3.68071637382441e-221  3.29496463749524e-222  1.56771696485589e-222  4.55692751541101e-222  8.64259736929998e-223  3.41289890602483e-225  5.14352530176382e-228  1.44121497747835e-231  7.69450012146155e-234  1.55155044769328e-235  1.68042978106638e-238  4.23021458423301e-244  7.40453444828500e-249  2.94130018513674e-249  1.73336029817915e-249  3.90086787249342e-250  1.29234026777736e-251  7.14750032504052e-254  1.65039050056565e-246   1.95847817500660e-96   6.37760741383454e-17   5.39255878267289e-16   1.53861217675804e-14   7.91396804520140e-13   2.33680586930944e-11   3.26838136542870e-09   2.96913737834628e-06   2.51436248802587e-03   7.15665963171634e-01   9.99848292188314e-01   9.99999966804804e-01   9.99999999996256e-01   9.99999999999999e-01   1.00000000000000e+00   1.00000000000000e+00   1.00000000000000e+00   1.00000000000000e+00   9.99999999999999e-01   9.99999999999999e-01   9.99999999999995e-01   9.99999999999998e-01   9.99999999999998e-01   9.99999999999999e-01   1.00000000000000e+00   9.99999999999998e-01   1.00000000000000e+00   1.00000000000000e+00   1.00000000000000e+00   1.00000000000000e+00   1.00000000000000e+00   1.00000000000000e+00   9.99999999999999e-01   9.99999999999997e-01   1.00000000000000e+00   9.99999999999997e-01   9.99999999999996e-01   1.00000000000000e+00   1.00000000000000e+00   9.99999999999995e-01   9.99999999999999e-01   9.99999999999998e-01   9.99999999999994e-01   9.99999999999993e-01   1.00000000000000e+00   1.00000000000000e+00   1.00000000000000e+00   9.99999999999992e-01   1.00000000000000e+00   1.00000000000000e+00   9.99999999999994e-01   1.00000000000000e+00   1.00000000000000e+00   9.99999999999996e-01   9.99999999999993e-01   9.99999999999997e-01   9.99999999999997e-01   1.00000000000000e+00   9.99999999999989e-01   1.00000000000001e+00   9.99999999999996e-01   9.99999999999992e-01   1.00000000000001e+00   1.00000000000001e+00   9.99999999999992e-01   9.99999999999993e-01   9.99999999999990e-01   9.99999999999997e-01   1.00000000000000e+00   9.99999999999996e-01   9.99999999999992e-01   1.00000000000000e+00   1.00000000000001e+00   1.00000000000001e+00   1.00000000000001e+00   1.00000000000000e+00   1.00000000000001e+00   9.99999999999989e-01   1.00000000000000e+00   1.00000000000001e+00   1.00000000000000e+00   9.99999999999992e-01   1.00000000000001e+00   9.99999999999998e-01   1.00000000000001e+00   9.99999999999991e-01   9.99999999999993e-01   9.99999999999999e-01   1.00000000000001e+00   1.00000000000001e+00   1.00000000000001e+00   9.99999999999992e-01   9.99999999999995e-01   9.99999999999997e-01   9.99999999999988e-01   1.00000000000001e+00   9.99999999999989e-01   1.00000000000000e+00   9.99999999999993e-01   9.99999999999999e-01   1.00000000000000e+00   9.99999999999994e-01   1.00000000000001e+00   1.00000000000001e+00   1.00000000000001e+00   9.99999999999994e-01   9.99999999999990e-01   9.99999999999994e-01   1.00000000000001e+00   9.99999999999997e-01   9.99999999999997e-01   1.00000000000000e+00   1.00000000000001e+00   9.99999999999988e-01   9.99999999999990e-01   9.99999999999975e-01   9.99999999999998e-01   1.00000000000001e+00   1.00000000000000e+00   9.99999999999994e-01   9.99999999999999e-01   9.99999999999987e-01   9.99999999999997e-01   9.99999999999989e-01   1.00000000000001e+00   9.99999999999995e-01   6.50815953471131e-42  3.53315208403906e-197   0.00000000000000e+00   0.00000000000000e+00   0.00000000000000e+00   0.00000000000000e+00   0.00000000000000e+00   0.00000000000000e+00   0.00000000000000e+00   0.00000000000000e+00   0.00000000000000e+00   0.00000000000000e+00   0.00000000000000e+00   0.00000000000000e+00   0.00000000000000e+00   0.00000000000000e+00   0.00000000000000e+00   0.00000000000000e+00   0.00000000000000e+00   0.00000000000000e+00   0.00000000000000e+00   0.00000000000000e+00   0.00000000000000e+00   0.00000000000000e+00   0.00000000000000e+00   0.00000000000000e+00   0.00000000000000e+00   0.00000000000000e+00   0.00000000000000e+00   0.00000000000000e+00   0.00000000000000e+00   0.00000000000000e+00   0.00000000000000e+00   0.00000000000000e+00   0.00000000000000e+00   0.00000000000000e+00   0.00000000000000e+00   0.00000000000000e+00   0.00000000000000e+00   0.00000000000000e+00   0.00000000000000e+00   0.00000000000000e+00   0.00000000000000e+00   0.00000000000000e+00   0.00000000000000e+00   0.00000000000000e+00   0.00000000000000e+00   0.00000000000000e+00   0.00000000000000e+00   0.00000000000000e+00   0.00000000000000e+00   0.00000000000000e+00   0.00000000000000e+00   0.00000000000000e+00   0.00000000000000e+00   0.00000000000000e+00   0.00000000000000e+00   0.00000000000000e+00   0.00000000000000e+00   0.00000000000000e+00   0.00000000000000e+00   0.00000000000000e+00   0.00000000000000e+00   0.00000000000000e+00   0.00000000000000e+00   0.00000000000000e+00   0.00000000000000e+00   0.00000000000000e+00   0.00000000000000e+00   0.00000000000000e+00   0.00000000000000e+00   0.00000000000000e+00   0.00000000000000e+00   0.00000000000000e+00  6.53156594621998e-191   1.17203521421741e-47   9.99955338174478e-01   9.99992217142048e-01   9.99999473663570e-01   9.99999990282003e-01   9.99999999877833e-01   9.99999999999654e-01   1.00000000000000e+00   1.00000000000000e+00   1.00000000000000e+00   1.00000000000000e+00   9.99999999999998e-01   1.00000000000000e+00   1.00000000000000e+00   1.00000000000000e+00   9.99999999999999e-01   1.00000000000000e+00   1.00000000000000e+00   1.00000000000000e+00   9.99999999999996e-01   1.00000000000000e+00   1.00000000000000e+00   1.00000000000000e+00   9.99999999999996e-01   1.00000000000000e+00   9.99999999999997e-01   1.00000000000000e+00   9.99999999999998e-01   9.99999999999998e-01   1.00000000000000e+00   9.99999999999997e-01   9.99999999999994e-01   9.99999999999999e-01   9.99999999999998e-01   9.99999999999994e-01   9.99999999999998e-01   9.99999999999999e-01   1.00000000000000e+00   1.00000000000000e+00   1.00000000000001e+00   9.99999999999994e-01   1.00000000000001e+00   9.99999999999995e-01   9.99999999999997e-01   1.00000000000000e+00   9.99999999999999e-01   9.99999999999997e-01   9.99999999999996e-01   1.00000000000001e+00   1.00000000000001e+00   9.99999999999999e-01   1.00000000000001e+00   1.00000000000000e+00   9.99999999999996e-01   9.99999999999998e-01   9.99999999999996e-01   9.99999999999997e-01   1.00000000000000e+00   1.00000000000000e+00   1.00000000000000e+00   1.00000000000000e+00   9.99999999999991e-01   9.99999999999989e-01   9.99999999999994e-01   1.00000000000001e+00   1.00000000000001e+00   1.00000000000000e+00   1.00000000000001e+00   1.00000000000000e+00   1.00000000000001e+00   1.00000000000001e+00   9.99999999999987e-01   1.00000000000000e+00   1.00000000000001e+00   1.00000000000001e+00   9.99999999999986e-01   9.99999999999997e-01   1.00000000000001e+00   1.00000000000001e+00   1.00000000000001e+00   9.99999999999988e-01   9.99999999999992e-01   1.00000000000001e+00   9.99999999999990e-01   1.00000000000000e+00   1.00000000000000e+00   1.00000000000000e+00   1.00000000000001e+00   9.99999999999997e-01   9.99999999999988e-01   9.99999999999990e-01   9.99999999999991e-01   1.00000000000001e+00   1.00000000000001e+00   9.99999999999989e-01   9.99999999999987e-01   1.00000000000001e+00   9.99999999999995e-01   1.00000000000000e+00   1.00000000000001e+00   9.99999999999993e-01   1.00000000000001e+00   1.00000000000000e+00   1.00000000000000e+00   1.00000000000001e+00   9.99999999999995e-01   1.00000000000001e+00   1.00000000000000e+00   1.00000000000001e+00   1.00000000000000e+00   9.99999999999999e-01   9.99999999999998e-01   1.00000000000001e+00   1.00000000000001e+00   9.99999999999987e-01   1.00000000000001e+00   1.00000000000003e+00   1.00000000000001e+00   1.00000000000000e+00   1.00000000000000e+00   1.00000000000001e+00   1.00000000000001e+00   1.00000000000001e+00   1.00000000000001e+00   9.99999999999996e-01   9.99999999999988e-01   9.99999999999993e-01   1.19827176316407e-55  2.00712858143758e-185  1.34487356180256e-287   0.00000000000000e+00   0.00000000000000e+00   0.00000000000000e+00   0.00000000000000e+00   0.00000000000000e+00   0.00000000000000e+00   0.00000000000000e+00   0.00000000000000e+00   0.00000000000000e+00   0.00000000000000e+00   0.00000000000000e+00   0.00000000000000e+00   0.00000000000000e+00   0.00000000000000e+00   0.00000000000000e+00   0.00000000000000e+00   0.00000000000000e+00   0.00000000000000e+00   0.00000000000000e+00   0.00000000000000e+00   0.00000000000000e+00   0.00000000000000e+00   0.00000000000000e+00   0.00000000000000e+00   0.00000000000000e+00   0.00000000000000e+00   0.00000000000000e+00   0.00000000000000e+00   0.00000000000000e+00   0.00000000000000e+00   0.00000000000000e+00   0.00000000000000e+00   0.00000000000000e+00   0.00000000000000e+00   0.00000000000000e+00   0.00000000000000e+00   0.00000000000000e+00   0.00000000000000e+00   0.00000000000000e+00   0.00000000000000e+00   0.00000000000000e+00   0.00000000000000e+00   0.00000000000000e+00   0.00000000000000e+00   0.00000000000000e+00   0.00000000000000e+00   0.00000000000000e+00   0.00000000000000e+00   0.00000000000000e+00   0.00000000000000e+00   0.00000000000000e+00   0.00000000000000e+00   0.00000000000000e+00   0.00000000000000e+00   0.00000000000000e+00   0.00000000000000e+00   0.00000000000000e+00   0.00000000000000e+00   0.00000000000000e+00   0.00000000000000e+00   0.00000000000000e+00   0.00000000000000e+00   0.00000000000000e+00   0.00000000000000e+00   0.00000000000000e+00   0.00000000000000e+00   0.00000000000000e+00   0.00000000000000e+00   0.00000000000000e+00   0.00000000000000e+00  4.44659081257122e-323  2.27962347491871e-115   4.01367442211988e-20   1.51069540402976e-18   1.05871544500829e-16   8.06991271070948e-15   9.32104005430226e-14   5.85259347244457e-13   1.53876021061250e-12   4.89633097762852e-12   2.34658303982197e-11   6.57025879730139e-10   4.34309409974949e-08   4.25386311975748e-06   1.15461432315532e-03   5.59111692483339e-01   9.98177021222119e-01   9.99997553358355e-01   9.99999999037281e-01   9.99999999999030e-01   9.99999999999999e-01   1.00000000000000e+00   1.00000000000000e+00   9.99999999999999e-01   1.00000000000000e+00   1.00000000000000e+00   1.00000000000000e+00   1.00000000000000e+00   1.00000000000000e+00   9.99999999999995e-01   9.99999999999996e-01   1.00000000000000e+00   9.99999999999995e-01
