0 86
1 118
0 83
1 107
0 112
1 70
0 81
1 109
0 82
1 106
0 88
1 111
0 85
1 120
0 84
1 112
0 83
1 110
0 82
1 106
0 84
1 109
0 84
1 104
0 83
1 103
0 82
1 114
0 111
1 95
0 86
1 106
0 134
1 52
0 117
1 65
0 83
1 93
0 79
1 100
0 83
1 99
0 86
1 96
0 87
1 97
0 85
1 99
0 85
1 105
0 79
1 99
0 78
1 89
0 101
1 68
0 85
1 90
0 121
1 55
0 84
1 96
0 95
1 87
0 88
1 92
0 81
1 91
0 81
1 91
0 83
1 90
0 118
1 56
0 76
1 95
0 120
1 63
0 124
1 64
0 121
1 69
0 120
1 64
0 125
1 57
0 111
1 67
0 113
1 75
0 81
1 104
0 119
1 68
0 84
1 112
0 129
1 65
0 110
1 78
0 113
1 68
0 116
1 61
0 111
1 64
0 102
1 77
0 117
1 75
0 82
1 104
0 123
1 64
0 82
1 106
0 83
1 105
0 78
1 102
0 80
1 108
0 80
1 108
0 82
1 111
0 87
1 118
0 116
1 92
0 117
1 84
0 105
1 86
0 112
1 82
0 110
1 84
0 82
1 122
0 83
1 121
0 82
1 73
0 80
1 167
0 88
1 119
0 77
1 117
0 77
1 110
0 79
1 114
0 80
1 116
0 85
1 119
0 89
1 113
0 86
1 113
0 80
1 112
0 113
1 80
0 80
1 107
0 82
1 109
0 83
1 115
0 87
1 112
0 90
1 118
0 87
1 112
0 79
1 107
0 81
1 105
0 84
1 112
0 82
1 107
0 85
1 107
0 107
1 83
0 89
1 101
0 85
1 105
0 81
1 102
0 79
1 99
0 81
1 101
0 79
1 103
0 85
1 107
0 82
1 106
0 88
1 102
0 83
1 101
0 83
1 95
0 80
1 101
0 83
1 99
0 81
1 99
0 83
1 106
0 100
1 99
0 89
1 111
0 82
1 108
0 80
1 107
0 110
1 77
0 82
1 108
0 81
1 116
0 84
1 120
0 87
1 124
0 87
1 117
0 82
1 119
0 79
1 121
0 115
1 82
0 113
1 81
0 122
1 85
0 121
1 100
0 123
1 91
0 85
1 117
0 110
1 91
0 82
1 118
0 79
1 119
0 79
1 121
0 85
1 119
0 87
1 126
0 126
1 84
0 107
1 89
0 81
1 113
0 107
1 92
0 85
1 120
0 84
1 128
0 83
1 124
0 108
1 101
0 86
1 116
0 82
1 121
0 80
1 117
0 79
1 114
0 85
1 125
0 88
1 124
0 128
1 76
0 83
1 116
0 85
1 113
0 114
1 78
0 83
1 111
0 83
1 119
0 85
1 114
0 117
1 87
0 91
1 114
0 84
1 115
0 80
1 108
0 81
1 110
0 80
1 112
0 84
1 118
0 85
1 117
0 87
1 113
0 86
1 111
0 86
1 110
0 81
1 107
0 110
1 74
0 84
1 107
0 85
1 109
0 88
1 112
0 132
1 65
0 86
1 107
0 118
1 67
0 84
1 107
0 104
1 82
0 80
1 109
0 85
1 109
0 85
1 109
0 118
1 75
0 87
1 103
0 80
1 102
0 81
1 99
0 84
1 105
0 84
1 108
0 81
1 115
0 82
1 116
0 89
1 110
0 117
1 72
0 84
1 111
0 119
1 74
0 113
1 78
0 78
1 116
0 86
1 125
0 84
1 125
0 83
1 110
0 83
1 111
0 115
1 74
0 114
1 80
0 122
1 70
0 115
1 83
0 111
1 91
0 119
1 92
0 87
1 108
0 81
1 108
0 113
1 76
0 84
1 106
0 82
1 111
0 84
1 119
0 81
1 121
0 86
1 115
0 86
1 110
0 84
1 109
0 111
1 80
0 81
1 111
0 118
1 76
0 85
1 116
0 88
1 118
0 86
1 107
0 84
1 106
0 80
1 111
0 86
1 109
0 80
1 107
0 82
1 112
0 85
1 115
0 113
1 86
0 88
1 109
0 85
1 105
0 116
1 69
0 112
1 80
0 84
1 112
0 82
1 117
0 87
1 115
0 90
1 112
0 87
1 106
0 83
1 112
0 105
1 88
0 81
1 113
0 82
1 110
0 87
1 120
0 88
1 117
0 89
1 110
0 82
1 104
0 83
1 108
0 80
1 116
0 87
1 110
0 83
1 115
0 83
1 121
0 115
1 93
0 89
1 109
0 84
1 108
0 104
1 86
0 84
1 109
0 84
1 108
0 85
1 119
0 87
1 115
0 91
1 108
0 84
1 107
0 106
1 88
0 84
1 108
0 79
1 104
0 81
1 115
0 113
1 90
0 90
1 114
0 89
1 106
0 83
1 109
0 112
1 76
0 84
1 111
0 116
1 73
0 83
1 110
0 84
1 117
0 87
1 109
0 123
1 73
0 83
1 108
0 111
1 78
0 81
1 102
0 83
1 110
0 87
1 115
0 125
1 74
0 87
1 109
0 122
1 75
0 80
1 112
0 83
1 110
0 80
1 108
0 114
1 78
0 120
1 86
0 93
1 115
0 86
1 109
0 81
1 110
0 82
1 110
0 80
1 108
0 115
1 74
0 121
1 76
0 123
1 75
0 87
1 112
0 129
1 70
0 116
1 76
0 111
1 72
0 82
1 106
0 83
1 107
0 86
1 116
0 91
1 115
0 118
1 77
0 114
1 81
0 104
1 92
0 85
1 106
0 79
1 103
0 118
1 75
0 85
1 116
0 89
1 111
0 88
1 112
0 80
1 109
0 113
1 73
0 83
1 107
0 84
1 106
0 108
1 83
0 117
1 81
0 87
1 107
0 83
1 104
0 114
1 76
0 116
1 71
0 81
1 97
0 79
1 96
0 85
1 103
0 87
1 98
0 114
1 66
0 85
1 95
0 87
1 92
0 82
1 91
0 117
1 58
0 122
1 56
0 80
1 97
0 86
1 98
0 86
1 110
0 113
1 75
0 88
1 98
0 111
1 66
0 113
1 69
0 111
1 76
0 117
1 75
0 122
1 68
0 116
1 83
0 120
1 85
0 88
1 112
0 115
1 70
0 111
1 75
0 110
1 79
0 82
1 110
0 87
1 109
0 124
1 75
0 121
1 81
0 84
1 111
0 82
1 109
0 82
1 107
0 103
1 93
0 85
1 113
0 87
1 111
0 91
1 117
0 122
1 88
0 82
1 113
0 81
1 107
0 82
1 114
0 111
1 91
0 91
1 117
0 88
1 109
0 120
1 82
0 112
1 94
0 87
1 111
0 82
1 105
0 78
1 111
0 117
1 93
0 87
1 126
0 87
1 107
0 85
1 111
0 85
1 113
0 85
1 116
0 85
1 101
0 114
1 79
0 83
1 117
0 88
1 118
0 88
1 108
0 83
1 104
0 79
1 99
0 81
1 100
0 79
1 96
0 82
1 98
0 105
1 81
0 87
1 104
0 82
1 99
0 83
1 105
0 117
1 67
0 83
1 96
0 80
1 94
0 79
1 107
0 83
1 111
0 88
1 110
0 124
1 66
0 85
1 108
0 115
1 74
0 85
1 106
0 81
1 108
0 79
1 111
0 115
1 85
0 89
1 113
0 87
1 115
0 86
1 112
0 83
1 113
0 80
1 110
0 83
1 118
0 81
1 122
0 109
1 98
0 87
1 118
0 85
1 117
0 83
1 118
0 113
1 86
0 118
1 80
0 115
1 77
0 118
1 92
0 88
1 120
0 86
1 110
0 112
1 85
0 120
1 74
0 84
1 110
0 118
1 77
0 112
1 87
0 84
1 118
0 87
1 118
0 86
1 118
0 82
1 107
0 84
1 105
0 115
1 77
0 84
1 114
0 90
1 117
0 85
1 117
0 83
1 117
0 116
1 97
0 84
1 113
0 82
1 106
0 113
1 82
0 122
1 81
0 88
1 118
0 89
1 117
0 121
1 82
0 83
1 110
0 81
1 108
0 120
1 67
0 101
1 91
0 82
1 117
0 89
1 106
0 86
1 115
0 85
1 121
0 80
1 119
0 79
1 102
0 83
1 107
0 116
1 84
0 108
1 105
0 88
1 118
0 122
1 75
0 83
1 114
0 80
1 55
0 85
1 153
0 83
1 119
0 114
1 96
0 88
1 122
0 87
1 118
0 84
1 119
0 115
1 80
0 109
1 80
0 114
1 79
0 84
1 111
0 125
1 75
0 120
1 85
0 89
1 114
0 86
1 110
0 118
1 71
0 115
1 75
0 109
1 82
0 83
1 116
0 87
1 118
0 126
1 75
0 88
1 113
0 116
1 81
0 80
1 110
0 82
1 110
0 119
1 73
0 86
1 114
0 120
1 90
0 90
1 120
0 127
1 74
0 79
1 116
0 82
1 113
0 116
1 83
0 116
1 81
0 126
1 80
0 124
1 80
0 126
1 85
0 124
1 75
0 82
1 113
0 115
1 76
0 85
1 121
0 120
1 87
0 118
1 82
0 87
1 117
0 88
1 114
0 121
1 77
0 85
1 108
0 84
1 110
0 113
1 87
0 124
1 85
0 88
1 120
0 118
1 79
0 86
1 113
0 117
1 74
0 85
1 113
0 114
1 80
0 86
1 119
0 87
1 119
0 88
1 125
0 103
1 99
0 113
1 80
0 81
1 114
0 120
1 75
0 113
1 87
0 91
1 113
0 89
1 121
0 124
1 80
0 121
1 82
0 84
1 114
0 80
1 113
0 86
1 103
0 89
1 116
0 116
1 98
0 87
1 123
0 89
1 104
0 82
1 106
0 84
1 113
0 83
1 117
0 116
1 80
0 123
1 73
0 124
1 83
0 123
1 87
0 88
1 116
0 115
1 67
0 114
1 74
0 124
1 79
0 88
1 117
0 89
1 104
0 114
1 83
0 116
1 84
0 117
1 82
0 83
1 64
0 80
1 147
0 116
1 93
0 85
1 126
0 92
1 119
0 121
1 80
0 123
1 71
0 85
1 76
0 79
1 141
0 121
1 79
0 122
1 69
0 87
1 112
0 125
1 87
0 109
1 99
0 82
1 101
0 120
1 69
0 113
1 82
0 81
1 123
0 82
1 118
0 119
1 78
0 122
1 79
0 87
1 118
0 86
1 108
0 112
1 72
0 116
1 77
0 83
1 70
0 86
1 170
0 127
1 91
0 126
1 82
0 112
1 84
0 82
1 115
0 86
1 116
0 120
1 80
0 117
1 87
0 86
1 119
0 117
1 93
0 119
1 84
0 116
1 78
0 112
1 81
0 84
1 116
0 124
1 74
0 86
1 118
0 86
1 70
0 86
1 164
0 124
1 79
0 117
1 86
0 106
1 89
0 96
1 52
0 84
1 168
0 131
1 90
0 122
1 87
0 84
1 116
0 83
1 120
0 80
1 119
0 117
1 91
0 126
1 76
0 89
1 123
0 124
1 89
0 89
1 118
0 106
1 91
0 81
1 115
0 81
1 118
0 119
1 93
0 90
1 128
0 86
1 120
0 87
1 121
0 83
1 118
0 84
1 114
0 112
1 83
0 85
1 114
0 88
1 125
0 128
1 86
0 89
1 120
0 87
1 114
0 83
1 118
0 83
1 118
0 116
1 88
0 83
1 118
0 89
1 121
0 89
1 121
0 120
1 90
0 84
1 112
0 82
1 112
0 82
1 122
0 117
1 94
0 89
1 125
0 84
1 121
0 84
1 128
0 116
1 83
0 85
1 119
0 120
1 78
0 85
1 116
0 87
1 128
0 129
1 86
0 120
1 89
0 112
1 83
0 81
1 119
0 82
1 119
0 81
1 121
0 120
1 85
0 89
1 120
0 87
1 124
0 89
1 116
0 125
1 69
0 81
1 112
0 120
1 78
0 84
1 120
0 88
1 120
0 86
1 124
0 120
1 81
0 85
1 117
0 122
1 75
0 84
1 114
0 118
1 83
0 86
1 125
0 124
1 86
0 90
1 124
0 117
1 85
0 114
1 80
0 117
1 83
0 85
1 114
0 88
1 117
0 126
1 85
0 124
1 88
0 113
1 88
0 115
1 88
0 121
1 74
0 113
1 78
0 103
1 101
0 86
1 118
0 88
1 117
0 85
1 116
0 125
1 73
0 120
1 72
0 86
1 114
0 118
1 80
0 109
1 90
0 89
1 124
0 87
1 118
0 122
1 80
0 120
1 80
0 83
1 61
0 80
1 159
0 87
1 126
0 117
1 94
0 120
1 91
0 88
1 124
0 83
1 119
0 81
1 111
0 117
1 82
0 84
1 111
0 120
1 90
0 89
1 124
0 124
1 83
0 109
1 87
0 87
1 113
0 82
1 116
0 82
1 68
0 82
1 154
0 93
1 111
0 89
1 120
0 125
1 80
0 83
1 109
0 79
1 108
0 88
1 115
0 113
1 84
0 116
1 90
0 88
1 118
0 113
1 89
0 87
1 121
0 86
1 113
0 79
1 113
0 80
1 114
0 88
1 125
0 86
1 121
0 86
1 119
0 87
1 112
0 88
1 108
0 84
1 113
0 119
1 82
0 117
1 81
0 110
1 96
0 94
1 119
0 89
1 118
0 116
1 77
0 84
1 103
0 82
1 104
0 84
1 110
0 128
1 73
0 84
1 119
0 85
1 115
0 120
1 83
0 84
1 112
0 116
1 71
0 116
1 70
0 117
1 83
0 86
1 109
0 126
1 79
0 118
1 85
0 86
1 113
0 118
1 71
0 117
1 78
0 111
1 89
0 84
1 113
0 117
1 86
0 109
1 105
0 115
1 100
0 83
1 107
0 78
1 115
0 118
1 84
0 86
1 119
0 88
1 110
0 87
1 121
0 89
1 128
0 87
1 111
0 117
1 83
0 81
1 116
0 109
1 94
0 86
1 113
0 87
1 121
0 90
1 121
0 118
1 89
0 84
1 102
0 113
1 79
0 108
1 90
0 83
1 118
0 84
1 107
0 86
1 120
0 90
1 121
0 88
1 116
0 111
1 68
0 120
1 72
0 120
1 81
0 86
1 125
0 88
1 110
0 84
1 115
0 121
1 90
0 87
1 115
0 84
1 97
0 79
1 108
0 117
1 83
0 87
1 123
0 87
1 110
0 114
1 87
0 109
1 91
0 83
1 115
0 86
1 67
0 79
1 146
0 120
1 85
0 88
1 124
0 86
1 124
0 89
1 119
0 117
1 77
0 82
1 107
0 122
1 73
0 125
1 77
0 86
1 117
0 83
1 118
0 85
1 122
0 122
1 78
0 117
1 73
0 82
1 113
0 113
1 76
0 81
1 121
0 121
1 82
0 89
1 120
0 121
1 78
0 124
1 76
0 104
1 86
0 80
1 119
0 118
1 79
0 84
1 117
0 107
1 100
0 91
1 118
0 85
1 116
0 119
1 77
0 112
1 83
0 80
1 116
0 121
1 86
0 127
1 82
0 124
1 78
0 85
1 124
0 86
1 116
0 115
1 79
0 113
1 76
0 86
1 115
0 81
1 126
0 125
1 89
0 123
1 84
0 84
1 114
0 83
1 123
0 117
1 84
0 119
1 79
0 86
1 120
0 86
1 129
0 83
1 128
0 126
1 80
0 83
1 113
0 79
1 116
0 121
1 80
0 104
1 95
0 90
1 116
0 128
1 81
0 86
1 120
0 81
1 116
0 82
1 116
0 116
1 76
0 115
1 80
0 86
1 119
0 94
1 118
0 88
1 118
0 86
1 116
0 104
1 90
0 82
1 116
0 123
1 80
0 81
1 119
0 84
1 56
0 84
1 173
0 126
1 84
0 84
1 115
0 115
1 76
0 83
1 115
0 82
1 116
0 110
1 96
0 86
1 118
0 85
1 119
0 86
1 122
0 118
1 74
0 116
1 77
0 84
1 115
0 84
1 117
0 118
1 94
0 89
1 121
0 84
1 124
0 113
1 85
0 118
1 82
0 117
1 79
0 84
1 120
0 126
1 79
0 129
1 76
0 91
1 120
0 87
1 117
0 114
1 82
0 105
1 86
0 83
1 117
0 84
1 120
0 120
1 84
0 125
1 80
0 86
1 115
0 128
1 74
0 117
1 79
0 111
1 77
0 86
1 116
0 127
1 82
0 90
1 119
0 90
1 114
0 85
1 113
0 84
1 113
0 109
1 87
0 102
1 95
0 115
1 91
0 128
1 80
0 88
1 124
0 85
1 116
0 84
1 112
0 115
1 79
0 82
1 114
0 118
1 84
0 89
1 124
0 127
1 84
0 84
1 119
0 88
1 116
0 81
1 120
0 112
1 81
0 81
1 113
0 117
1 86
0 88
1 125
0 119
1 86
0 87
1 113
0 109
1 80
0 83
1 119
0 115
1 81
0 118
1 76
0 107
1 97
0 89
1 121
0 123
1 81
0 106
1 90
0 85
1 109
0 79
1 113
0 120
1 84
0 109
1 91
0 87
1 115
0 89
1 117
0 122
1 81
0 113
1 79
0 84
1 110
0 83
1 113
0 116
1 85
0 85
1 123
0 88
1 121
0 86
1 118
0 85
1 73
0 102
1 124
0 117
1 80
0 87
1 62
0 107
1 133
0 123
1 84
0 114
1 98
0 118
1 88
0 83
1 108
0 117
1 75
0 85
1 108
0 84
1 121
0 90
1 121
0 115
1 91
0 119
1 81
0 126
1 85
0 83
1 112
0 81
1 111
0 84
1 115
0 88
1 119
0 90
1 122
0 88
1 121
0 101
1 96
0 82
1 116
0 118
1 86
0 81
1 117
0 111
1 85
0 91
1 123
0 122
1 85
0 123
1 89
0 113
1 84
0 82
1 113
0 80
1 115
0 125
1 83
0 113
1 92
0 86
1 121
0 129
1 80
0 103
1 98
0 117
1 79
0 86
1 111
0 111
1 86
0 78
1 56
0 88
1 169
0 89
1 120
0 86
1 121
0 117
1 81
0 111
1 80
0 86
1 113
0 86
1 118
0 84
1 53
0 87
1 166
0 92
1 121
0 85
1 122
0 114
1 83
0 102
1 93
0 79
1 118
0 86
1 124
0 127
1 83
0 85
1 120
0 84
1 119
0 85
1 120
0 122
1 77
0 79
1 117
0 81
1 122
0 83
1 131
0 124
1 92
0 87
1 119
0 100
1 100
0 83
1 123
0 118
1 86
0 84
1 122
0 85
1 66
0 87
1 170
0 128
1 89
0 118
1 91
0 106
1 90
0 81
1 118
0 124
1 83
0 86
1 75
0 110
1 137
0 89
1 121
0 86
1 119
0 118
1 83
0 123
1 70
0 114
1 82
0 81
1 122
0 123
1 88
0 125
1 82
0 88
1 116
0 83
1 114
0 118
1 80
0 120
1 77
0 113
1 86
0 85
1 125
0 86
1 125
0 88
1 125
0 85
1 116
0 85
1 115
0 112
1 83
0 84
1 117
0 114
1 92
0 92
1 123
0 131
1 80
0 85
1 120
0 113
1 88
0 82
1 118
0 81
1 114
0 111
1 92
0 118
1 86
0 91
1 122
0 126
1 84
0 116
1 85
0 83
1 61
0 84
1 156
0 85
1 121
0 118
1 86
0 87
1 122
0 87
1 122
0 88
1 119
0 110
1 87
0 113
1 78
0 83
1 117
0 87
1 122
0 87
1 123
0 85
1 76
0 84
1 162
0 84
1 119
0 113
1 87
0 113
1 79
0 86
1 111
0 123
1 87
0 92
1 123
0 116
1 90
0 114
1 84
0 83
1 119
0 115
1 83
0 83
1 117
0 106
1 97
0 86
1 123
0 87
1 126
0 89
1 117
0 113
1 82
0 81
1 115
0 83
1 114
0 83
1 114
0 86
1 131
0 85
1 126
0 122
1 83
0 114
1 92
0 115
1 81
0 85
1 110
0 82
1 116
0 127
1 81
0 125
1 85
0 110
1 101
0 87
1 120
0 114
1 81
0 101
1 99
0 86
1 113
0 84
1 121
0 88
1 122
0 89
1 122
0 87
1 120
0 88
1 118
0 114
1 82
0 82
1 118
0 123
1 85
0 87
1 126
0 86
1 124
0 124
1 88
0 114
1 82
0 84
1 119
0 119
1 79
0 84
1 114
0 86
1 121
0 92
1 126
0 121
1 86
0 115
1 88
0 106
1 90
0 79
1 121
0 82
1 120
0 107
